000.00000 -6.958008e-03
000.00008 -5.493164e-03
000.00016 -6.591797e-03
000.00024 -8.789062e-03
000.00032 -9.155273e-03
000.00040 -7.690430e-03
000.00048 -6.958008e-03
000.00056 -1.281738e-02
000.00064 -6.591797e-03
000.00072 -5.859375e-03
000.00080 -6.958008e-03
000.00088 -6.958008e-03
000.00096 -5.493164e-03
000.00104 -5.859375e-03
000.00112 -2.197266e-03
000.00120 -6.958008e-03
000.00128 -8.056641e-03
000.00136 -4.394531e-03
000.00144 -1.464844e-03
000.00152 -3.295898e-03
000.00160 -6.591797e-03
000.00168 +1.831055e-03
000.00176 -3.295898e-03
000.00184 -6.225586e-03
000.00192 -3.662109e-03
000.00200 -5.493164e-03
000.00208 -3.662109e-03
000.00216 +1.831055e-03
000.00224 -1.831055e-03
000.00232 -9.887695e-03
000.00240 -5.859375e-03
000.00248 -6.591797e-03
000.00256 -5.493164e-03
000.00264 -5.493164e-03
000.00272 -5.126953e-03
000.00280 -1.464844e-03
000.00288 -1.098633e-03
000.00296 +1.574707e-02
000.00304 -5.859375e-03
000.00312 +7.324219e-04
000.00320 +9.887695e-03
000.00328 -5.126953e-03
000.00336 -4.760742e-03
000.00344 -4.394531e-03
000.00352 +4.394531e-03
000.00360 -1.171875e-02
000.00368 -8.056641e-03
000.00376 -5.493164e-03
000.00384 -4.760742e-03
000.00392 -6.225586e-03
000.00400 -6.225586e-03
000.00408 -4.028320e-03
000.00416 -5.493164e-03
000.00424 -2.929688e-03
000.00432 -4.394531e-03
000.00440 -4.760742e-03
000.00448 -3.662109e-03
000.00456 +7.324219e-04
000.00464 -1.098633e-03
000.00472 -3.662109e-03
000.00480 -1.831055e-03
000.00488 -4.394531e-03
000.00496 -1.831055e-03
000.00504 -5.859375e-03
000.00512 -5.859375e-03
000.00520 -3.295898e-03
000.00528 -1.135254e-02
000.00536 -3.662109e-03
000.00544 -4.028320e-03
000.00552 -8.056641e-03
000.00560 -4.028320e-03
000.00568 -9.887695e-03
000.00576 -4.028320e-03
000.00584 -1.831055e-02
000.00592 -4.028320e-03
000.00600 -1.391602e-02
000.00608 -4.394531e-03
000.00616 -7.324219e-03
000.00624 -3.295898e-03
000.00632 +5.859375e-03
000.00640 -1.098633e-03
000.00648 -2.197266e-03
000.00656 -3.295898e-03
000.00664 -1.464844e-03
000.00672 -1.831055e-03
000.00680 -1.831055e-03
000.00688 -7.324219e-03
000.00696 -2.563477e-03
000.00704 -2.563477e-03
000.00712 -4.028320e-03
000.00720 -3.662109e-03
000.00728 -2.563477e-03
000.00736 -7.324219e-04
000.00744 -2.563477e-03
000.00752 -1.098633e-03
000.00760 -1.831055e-03
000.00768 -3.662109e-04
000.00776 -1.831055e-03
000.00784 -2.563477e-03
000.00792 -4.028320e-03
000.00800 -1.098633e-03
000.00808 -1.098633e-03
000.00816 -4.028320e-03
000.00824 -2.929688e-03
000.00832 -1.831055e-03
000.00840 -4.760742e-03
000.00848 -2.929688e-03
000.00856 -2.197266e-03
000.00864 -3.295898e-03
000.00872 -4.394531e-03
000.00880 -2.929688e-03
000.00888 +2.197266e-03
000.00896 -2.929688e-03
000.00904 -3.295898e-03
000.00912 -4.394531e-03
000.00920 -5.126953e-03
000.00928 -2.197266e-03
000.00936 -2.197266e-03
000.00944 -2.929688e-03
000.00952 -1.318359e-02
000.00960 -3.662109e-04
000.00968 -9.887695e-03
000.00976 +2.563477e-03
000.00984 -2.490234e-02
000.00992 -1.464844e-03
000.01000 +8.422852e-03
000.01008 -1.831055e-03
000.01016 -3.662109e-04
000.01024 +7.324219e-04
000.01032 +0.000000e+00
000.01040 +0.000000e+00
000.01048 +3.295898e-03
000.01056 -3.662109e-04
000.01064 +7.324219e-04
000.01072 -3.662109e-04
000.01080 +0.000000e+00
000.01088 -1.464844e-03
000.01096 -1.831055e-03
000.01104 -3.662109e-03
000.01112 -2.929688e-03
000.01120 -4.760742e-03
000.01128 -7.690430e-03
000.01136 -4.394531e-03
000.01144 -7.324219e-03
000.01152 -5.859375e-03
000.01160 -4.394531e-03
000.01168 -5.493164e-03
000.01176 -6.591797e-03
000.01184 -2.929688e-03
000.01192 -3.662109e-03
000.01200 -7.324219e-03
000.01208 -5.859375e-03
000.01216 -3.662109e-03
000.01224 -2.197266e-03
000.01232 -3.662109e-03
000.01240 -9.887695e-03
000.01248 -3.295898e-03
000.01256 -1.391602e-02
000.01264 -1.098633e-03
000.01272 -7.690430e-03
000.01280 -3.295898e-03
000.01288 -3.662109e-03
000.01296 -6.958008e-03
000.01304 +9.887695e-03
000.01312 -3.295898e-03
000.01320 -1.831055e-03
000.01328 -8.789062e-03
000.01336 +6.225586e-03
000.01344 -3.479004e-02
000.01352 -3.662109e-03
000.01360 -6.958008e-03
000.01368 -2.929688e-03
000.01376 +3.662109e-04
000.01384 -2.563477e-03
000.01392 -2.929688e-03
000.01400 -2.929688e-03
000.01408 -4.028320e-03
000.01416 -1.831055e-03
000.01424 -3.295898e-03
000.01432 -2.197266e-03
000.01440 -1.098633e-03
000.01448 -4.394531e-03
000.01456 -5.859375e-03
000.01464 -2.197266e-03
000.01472 -4.028320e-03
000.01480 -3.662109e-03
000.01488 -2.929688e-03
000.01496 -3.295898e-03
000.01504 -2.929688e-03
000.01512 -1.831055e-03
000.01520 -2.563477e-03
000.01528 -7.324219e-04
000.01536 -1.831055e-03
000.01544 -2.197266e-03
000.01552 -7.324219e-04
000.01560 +0.000000e+00
000.01568 -7.324219e-04
000.01576 +5.859375e-03
000.01584 +0.000000e+00
000.01592 -4.394531e-03
000.01600 -1.098633e-03
000.01608 -1.171875e-02
000.01616 -2.197266e-03
000.01624 -2.197266e-03
000.01632 -1.098633e-03
000.01640 -1.135254e-02
000.01648 -8.056641e-03
000.01656 -3.295898e-03
000.01664 -4.028320e-03
000.01672 -1.831055e-03
000.01680 -2.197266e-03
000.01688 +2.929688e-03
000.01696 -3.662109e-03
000.01704 -2.197266e-03
000.01712 -4.760742e-03
000.01720 -1.831055e-03
000.01728 +1.831055e-03
000.01736 -2.929688e-03
000.01744 -2.563477e-03
000.01752 -4.028320e-03
000.01760 -1.464844e-03
000.01768 -2.197266e-03
000.01776 -2.929688e-03
000.01784 -1.464844e-03
000.01792 -7.324219e-04
000.01800 -5.126953e-03
000.01808 +2.929688e-03
000.01816 +7.324219e-04
000.01824 +3.662109e-04
000.01832 +3.662109e-04
000.01840 +3.662109e-04
000.01848 +1.098633e-03
000.01856 -7.324219e-04
000.01864 +1.464844e-03
000.01872 +0.000000e+00
000.01880 -1.464844e-03
000.01888 -4.394531e-03
000.01896 -2.380371e-02
000.01904 +0.000000e+00
000.01912 +3.662109e-04
000.01920 -7.324219e-04
000.01928 +0.000000e+00
000.01936 -7.324219e-04
000.01944 -9.521484e-03
000.01952 -3.295898e-03
000.01960 -7.324219e-04
000.01968 -1.464844e-03
000.01976 -9.155273e-03
000.01984 -1.464844e-03
000.01992 +4.394531e-03
000.02000 -1.464844e-03
000.02008 +7.690430e-03
000.02016 -2.673340e-02
000.02024 +0.000000e+00
000.02032 +5.493164e-03
000.02040 -3.295898e-03
000.02048 -2.197266e-03
000.02056 -6.958008e-03
000.02064 -2.563477e-03
000.02072 -3.295898e-03
000.02080 -1.831055e-03
000.02088 +0.000000e+00
000.02096 -3.662109e-03
000.02104 -2.197266e-03
000.02112 -2.563477e-03
000.02120 +8.422852e-03
000.02128 +3.662109e-04
000.02136 +3.662109e-04
000.02144 +3.662109e-04
000.02152 +7.324219e-04
000.02160 +3.662109e-04
000.02168 -2.197266e-03
000.02176 -3.662109e-04
000.02184 -3.662109e-04
000.02192 -7.324219e-04
000.02200 -1.098633e-03
000.02208 +0.000000e+00
000.02216 +3.662109e-04
000.02224 -2.563477e-03
000.02232 -4.394531e-03
000.02240 -2.197266e-03
000.02248 -1.098633e-03
000.02256 -2.563477e-03
000.02264 +5.859375e-03
000.02272 -2.929688e-03
000.02280 +1.464844e-03
000.02288 -2.563477e-03
000.02296 +8.789062e-03
000.02304 -3.295898e-03
000.02312 -1.831055e-03
000.02320 -1.135254e-02
000.02328 +2.197266e-03
000.02336 -2.929688e-03
000.02344 +2.087402e-02
000.02352 +2.197266e-03
000.02360 -1.245117e-02
000.02368 +3.662109e-04
000.02376 +1.464844e-03
000.02384 -2.929688e-03
000.02392 -3.662109e-03
000.02400 -6.958008e-03
000.02408 -5.126953e-03
000.02416 +7.690430e-03
000.02424 -1.281738e-02
000.02432 -7.324219e-04
000.02440 -1.464844e-03
000.02448 +3.662109e-03
000.02456 -3.662109e-04
000.02464 +0.000000e+00
000.02472 +7.324219e-04
000.02480 +0.000000e+00
000.02488 -2.197266e-03
000.02496 -3.662109e-04
000.02504 -4.028320e-03
000.02512 -7.324219e-04
000.02520 -4.028320e-03
000.02528 -2.929688e-03
000.02536 +0.000000e+00
000.02544 -1.831055e-03
000.02552 -7.690430e-03
000.02560 +0.000000e+00
000.02568 -1.464844e-03
000.02576 -5.126953e-03
000.02584 +0.000000e+00
000.02592 -3.295898e-03
000.02600 -7.324219e-04
000.02608 -7.324219e-04
000.02616 -5.859375e-03
000.02624 -7.324219e-04
000.02632 -1.098633e-03
000.02640 -1.464844e-03
000.02648 -2.929688e-03
000.02656 +2.197266e-03
000.02664 -9.887695e-03
000.02672 -1.098633e-03
000.02680 +3.295898e-03
000.02688 +3.662109e-04
000.02696 +3.662109e-04
000.02704 -7.690430e-03
000.02712 -1.831055e-03
000.02720 -2.197266e-03
000.02728 +3.295898e-03
000.02736 -1.831055e-03
000.02744 -7.324219e-04
000.02752 +7.324219e-04
000.02760 +1.098633e-03
000.02768 +0.000000e+00
000.02776 +1.464844e-03
000.02784 -7.324219e-04
000.02792 -7.324219e-04
000.02800 -4.028320e-03
000.02808 -1.831055e-03
000.02816 -1.831055e-03
000.02824 -1.464844e-03
000.02832 -1.464844e-03
000.02840 +1.831055e-03
000.02848 -3.662109e-04
000.02856 +0.000000e+00
000.02864 +0.000000e+00
000.02872 -6.591797e-03
000.02880 -1.464844e-03
000.02888 -1.831055e-03
000.02896 -1.464844e-03
000.02904 -4.028320e-03
000.02912 -3.295898e-03
000.02920 +1.098633e-03
000.02928 -1.464844e-03
000.02936 -3.662109e-04
000.02944 -1.098633e-03
000.02952 -1.098633e-03
000.02960 +2.050781e-02
000.02968 -2.563477e-03
000.02976 -2.197266e-03
000.02984 +8.789062e-03
000.02992 +0.000000e+00
000.03000 -7.324219e-04
000.03008 -7.324219e-04
000.03016 +1.062012e-02
000.03024 +1.464844e-03
000.03032 -1.208496e-02
000.03040 +5.126953e-03
000.03048 -7.324219e-04
000.03056 +1.391602e-02
000.03064 +1.281738e-02
000.03072 +1.464844e-03
000.03080 -5.859375e-03
000.03088 +2.197266e-03
000.03096 +7.324219e-04
000.03104 -7.324219e-04
000.03112 -7.324219e-04
000.03120 +1.098633e-03
000.03128 -1.464844e-03
000.03136 -1.831055e-03
000.03144 -1.831055e-03
000.03152 -3.662109e-03
000.03160 -1.831055e-03
000.03168 -1.831055e-03
000.03176 +0.000000e+00
000.03184 +7.324219e-04
000.03192 +7.324219e-04
000.03200 -1.098633e-03
000.03208 -7.324219e-04
000.03216 -1.098633e-03
000.03224 -1.464844e-03
000.03232 -7.324219e-04
000.03240 -3.662109e-03
000.03248 -7.324219e-04
000.03256 +7.324219e-04
000.03264 -3.295898e-03
000.03272 -3.662109e-03
000.03280 +1.098633e-03
000.03288 +7.324219e-04
000.03296 -1.464844e-03
000.03304 -5.493164e-03
000.03312 -2.197266e-03
000.03320 -7.690430e-03
000.03328 -2.197266e-03
000.03336 +0.000000e+00
000.03344 -1.831055e-03
000.03352 -5.493164e-03
000.03360 -3.662109e-04
000.03368 +4.028320e-03
000.03376 -1.831055e-03
000.03384 +3.295898e-03
000.03392 +8.789062e-03
000.03400 -2.563477e-03
000.03408 +6.958008e-03
000.03416 -1.464844e-03
000.03424 -2.563477e-03
000.03432 -1.464844e-03
000.03440 -1.831055e-03
000.03448 -2.563477e-03
000.03456 -2.929688e-03
000.03464 -1.831055e-03
000.03472 -1.574707e-02
000.03480 -3.662109e-03
000.03488 -2.197266e-03
000.03496 +7.324219e-04
000.03504 -3.662109e-04
000.03512 -1.831055e-03
000.03520 -1.098633e-03
000.03528 +7.324219e-04
000.03536 -2.563477e-03
000.03544 -2.197266e-03
000.03552 +1.831055e-03
000.03560 +1.464844e-03
000.03568 +1.098633e-03
000.03576 +1.098633e-03
000.03584 +7.324219e-04
000.03592 +1.464844e-03
000.03600 -8.056641e-03
000.03608 +0.000000e+00
000.03616 +7.324219e-04
000.03624 +6.591797e-03
000.03632 +7.324219e-04
000.03640 +4.760742e-03
000.03648 -7.324219e-04
000.03656 -4.760742e-03
000.03664 -3.662109e-04
000.03672 -5.859375e-03
000.03680 +3.662109e-04
000.03688 +7.324219e-04
000.03696 +1.831055e-03
000.03704 +4.760742e-03
000.03712 +8.056641e-03
000.03720 +2.929688e-03
000.03728 +7.690430e-03
000.03736 -7.324219e-03
000.03744 +8.422852e-03
000.03752 +1.208496e-02
000.03760 +3.662109e-03
000.03768 +0.000000e+00
000.03776 +1.098633e-03
000.03784 +5.859375e-03
000.03792 +3.662109e-04
000.03800 +1.831055e-03
000.03808 +0.000000e+00
000.03816 +1.831055e-03
000.03824 +0.000000e+00
000.03832 +2.197266e-03
000.03840 +1.464844e-03
000.03848 +2.197266e-03
000.03856 +1.464844e-03
000.03864 +2.563477e-03
000.03872 +7.324219e-04
000.03880 -2.197266e-03
000.03888 +2.563477e-03
000.03896 +4.760742e-03
000.03904 +1.464844e-03
000.03912 +4.028320e-03
000.03920 +1.831055e-03
000.03928 -2.929688e-03
000.03936 +1.098633e-03
000.03944 +7.324219e-04
000.03952 -1.464844e-03
000.03960 -7.324219e-04
000.03968 +7.324219e-04
000.03976 +0.000000e+00
000.03984 +1.611328e-02
000.03992 -1.135254e-02
000.04000 +0.000000e+00
000.04008 +4.760742e-03
000.04016 -1.831055e-03
000.04024 -2.197266e-03
000.04032 -4.760742e-03
000.04040 -7.690430e-03
000.04048 -1.098633e-03
000.04056 +8.056641e-03
000.04064 -2.563477e-03
000.04072 -1.098633e-03
000.04080 -4.028320e-03
000.04088 -1.464844e-03
000.04096 -1.098633e-03
000.04104 +3.662109e-04
000.04112 +2.929688e-03
000.04120 +1.464844e-03
000.04128 +1.464844e-03
000.04136 +1.464844e-03
000.04144 +3.295898e-03
000.04152 +4.028320e-03
000.04160 +0.000000e+00
000.04168 +1.464844e-03
000.04176 +5.859375e-03
000.04184 +2.563477e-03
000.04192 +3.662109e-04
000.04200 +2.929688e-03
000.04208 +1.098633e-02
000.04216 +1.464844e-03
000.04224 +3.662109e-04
000.04232 -3.662109e-04
000.04240 +8.422852e-03
000.04248 +9.521484e-03
000.04256 -1.464844e-03
000.04264 -2.563477e-03
000.04272 +3.662109e-04
000.04280 -1.831055e-03
000.04288 -1.098633e-03
000.04296 -1.831055e-03
000.04304 -2.197266e-03
000.04312 +1.831055e-03
000.04320 -1.831055e-03
000.04328 +5.859375e-03
000.04336 -7.324219e-03
000.04344 +2.929688e-03
000.04352 +0.000000e+00
000.04360 +0.000000e+00
000.04368 +0.000000e+00
000.04376 +3.662109e-04
000.04384 -1.464844e-03
000.04392 +1.208496e-02
000.04400 +1.098633e-03
000.04408 +4.394531e-03
000.04416 +8.789062e-03
000.04424 +5.859375e-03
000.04432 +2.124023e-02
000.04440 +9.521484e-03
000.04448 +2.197266e-03
000.04456 +4.028320e-03
000.04464 +3.295898e-03
000.04472 -2.563477e-03
000.04480 +2.929688e-03
000.04488 +2.197266e-03
000.04496 -2.563477e-03
000.04504 +1.098633e-03
000.04512 +1.098633e-03
000.04520 +2.197266e-03
000.04528 +1.464844e-03
000.04536 +1.831055e-03
000.04544 +2.197266e-03
000.04552 -1.098633e-03
000.04560 +3.662109e-03
000.04568 +7.324219e-04
000.04576 +3.662109e-04
000.04584 +6.591797e-03
000.04592 -1.464844e-03
000.04600 +1.831055e-03
000.04608 +2.197266e-03
000.04616 +2.929688e-03
000.04624 +0.000000e+00
000.04632 +7.324219e-03
000.04640 +1.464844e-03
000.04648 +1.318359e-02
000.04656 +4.394531e-03
000.04664 +4.760742e-03
000.04672 +4.760742e-03
000.04680 -2.563477e-03
000.04688 +3.662109e-03
000.04696 +1.062012e-02
000.04704 +4.394531e-03
000.04712 +4.028320e-03
000.04720 +4.760742e-03
000.04728 -2.563477e-03
000.04736 +2.929688e-03
000.04744 +4.760742e-03
000.04752 +4.028320e-03
000.04760 +4.760742e-03
000.04768 -2.929688e-03
000.04776 +3.295898e-03
000.04784 +5.493164e-03
000.04792 +4.394531e-03
000.04800 +7.324219e-04
000.04808 +1.464844e-03
000.04816 +3.295898e-03
000.04824 +2.563477e-03
000.04832 +2.929688e-03
000.04840 +2.929688e-03
000.04848 +1.464844e-03
000.04856 +6.225586e-03
000.04864 +2.563477e-03
000.04872 +2.929688e-03
000.04880 +2.563477e-03
000.04888 +5.126953e-03
000.04896 +4.028320e-03
000.04904 +5.126953e-03
000.04912 +6.591797e-03
000.04920 +5.493164e-03
000.04928 +6.958008e-03
000.04936 +2.197266e-03
000.04944 +3.662109e-03
000.04952 +4.028320e-03
000.04960 +5.126953e-03
000.04968 +4.760742e-03
000.04976 +5.126953e-03
000.04984 +7.324219e-04
000.04992 +6.225586e-03
000.05000 +4.394531e-03
000.05008 +5.493164e-03
000.05016 +9.887695e-03
000.05024 +5.493164e-03
000.05032 +1.098633e-02
000.05040 +5.859375e-03
000.05048 +1.025391e-02
000.05056 +6.225586e-03
000.05064 +6.225586e-03
000.05072 +6.591797e-03
000.05080 +8.056641e-03
000.05088 +6.958008e-03
000.05096 +1.171875e-02
000.05104 +1.391602e-02
000.05112 +1.318359e-02
000.05120 +4.760742e-03
000.05128 +4.394531e-03
000.05136 -7.324219e-03
000.05144 +1.831055e-03
000.05152 +1.464844e-03
000.05160 +2.929688e-03
000.05168 +1.831055e-03
000.05176 +2.197266e-03
000.05184 -1.062012e-02
000.05192 +2.563477e-03
000.05200 +3.295898e-03
000.05208 +3.295898e-03
000.05216 +2.563477e-03
000.05224 +2.197266e-03
000.05232 +2.929688e-03
000.05240 +2.563477e-03
000.05248 +9.155273e-03
000.05256 +1.464844e-03
000.05264 +4.394531e-03
000.05272 +2.563477e-03
000.05280 +4.028320e-03
000.05288 +8.789062e-03
000.05296 +3.662109e-03
000.05304 +6.225586e-03
000.05312 +3.295898e-03
000.05320 +5.493164e-03
000.05328 +2.929688e-03
000.05336 +6.958008e-03
000.05344 +2.563477e-03
000.05352 +2.197266e-03
000.05360 +3.662109e-03
000.05368 -3.662109e-03
000.05376 +4.028320e-03
000.05384 +2.929688e-03
000.05392 +5.126953e-03
000.05400 +3.662109e-03
000.05408 +3.662109e-03
000.05416 -4.394531e-03
000.05424 +2.197266e-03
000.05432 +5.126953e-03
000.05440 +1.464844e-03
000.05448 -2.563477e-03
000.05456 +1.318359e-02
000.05464 +7.324219e-04
000.05472 +1.098633e-02
000.05480 +0.000000e+00
000.05488 +7.324219e-04
000.05496 +1.831055e-03
000.05504 +2.197266e-03
000.05512 +2.929688e-03
000.05520 -8.056641e-03
000.05528 +3.295898e-03
000.05536 +5.126953e-03
000.05544 +3.662109e-03
000.05552 +4.028320e-03
000.05560 +4.028320e-03
000.05568 +3.662109e-03
000.05576 +4.394531e-03
000.05584 +3.295898e-03
000.05592 +6.591797e-03
000.05600 +2.197266e-03
000.05608 +3.295898e-03
000.05616 +7.690430e-03
000.05624 +4.394531e-03
000.05632 +4.760742e-03
000.05640 +3.662109e-03
000.05648 +4.028320e-03
000.05656 +1.391602e-02
000.05664 +4.028320e-03
000.05672 -1.098633e-03
000.05680 +4.394531e-03
000.05688 -1.794434e-02
000.05696 +7.690430e-03
000.05704 +1.062012e-02
000.05712 +2.929688e-03
000.05720 +4.760742e-03
000.05728 +4.394531e-03
000.05736 -4.394531e-03
000.05744 +4.394531e-03
000.05752 +3.662109e-03
000.05760 +4.394531e-03
000.05768 +8.789062e-03
000.05776 +3.295898e-03
000.05784 +6.591797e-03
000.05792 +1.794434e-02
000.05800 +2.929688e-03
000.05808 -1.062012e-02
000.05816 +1.464844e-02
000.05824 +4.760742e-03
000.05832 +4.394531e-03
000.05840 +3.662109e-03
000.05848 +5.126953e-03
000.05856 +8.789062e-03
000.05864 +4.760742e-03
000.05872 +5.493164e-03
000.05880 +5.126953e-03
000.05888 +5.859375e-03
000.05896 +6.225586e-03
000.05904 +4.760742e-03
000.05912 +4.760742e-03
000.05920 +6.225586e-03
000.05928 +5.859375e-03
000.05936 +0.000000e+00
000.05944 +2.929688e-03
000.05952 +4.394531e-03
000.05960 +7.690430e-03
000.05968 +4.028320e-03
000.05976 +7.324219e-03
000.05984 +3.662109e-03
000.05992 +5.859375e-03
000.06000 +3.295898e-03
000.06008 +8.422852e-03
000.06016 +4.028320e-03
000.06024 +1.831055e-03
000.06032 -3.662109e-04
000.06040 +3.295898e-03
000.06048 +3.295898e-03
000.06056 -6.591797e-03
000.06064 +2.197266e-03
000.06072 +1.171875e-02
000.06080 +1.831055e-03
000.06088 +3.662109e-04
000.06096 +2.563477e-03
000.06104 +1.098633e-03
000.06112 +5.126953e-03
000.06120 -2.929688e-03
000.06128 +6.225586e-03
000.06136 +1.391602e-02
000.06144 +5.126953e-03
000.06152 +8.422852e-03
000.06160 +3.295898e-03
000.06168 +6.225586e-03
000.06176 +5.859375e-03
000.06184 +6.225586e-03
000.06192 +6.225586e-03
000.06200 +6.958008e-03
000.06208 +8.056641e-03
000.06216 +4.760742e-03
000.06224 -2.563477e-03
000.06232 +5.859375e-03
000.06240 +4.760742e-03
000.06248 +4.760742e-03
000.06256 +4.394531e-03
000.06264 +4.394531e-03
000.06272 +3.662109e-03
000.06280 +3.295898e-03
000.06288 +4.760742e-03
000.06296 +1.135254e-02
000.06304 +5.493164e-03
000.06312 +4.028320e-03
000.06320 +4.760742e-03
000.06328 +3.662109e-03
000.06336 +4.760742e-03
000.06344 +2.563477e-03
000.06352 +4.394531e-03
000.06360 -3.662109e-04
000.06368 +2.563477e-03
000.06376 +2.563477e-03
000.06384 +3.662109e-03
000.06392 +1.354980e-02
000.06400 +5.126953e-03
000.06408 +5.493164e-03
000.06416 +5.859375e-03
000.06424 +9.521484e-03
000.06432 +5.493164e-03
000.06440 +7.324219e-03
000.06448 +6.591797e-03
000.06456 -4.028320e-03
000.06464 +9.521484e-03
000.06472 +1.574707e-02
000.06480 +1.574707e-02
000.06488 +1.611328e-02
000.06496 +6.591797e-03
000.06504 +2.014160e-02
000.06512 +8.789062e-03
000.06520 +4.394531e-03
000.06528 +6.958008e-03
000.06536 +5.493164e-03
000.06544 +4.394531e-03
000.06552 +1.464844e-03
000.06560 +2.929688e-03
000.06568 +3.662109e-03
000.06576 +8.789062e-03
000.06584 +3.662109e-03
000.06592 +2.929688e-03
000.06600 +2.563477e-03
000.06608 +4.028320e-03
000.06616 +4.028320e-03
000.06624 +7.324219e-03
000.06632 +6.225586e-03
000.06640 +5.859375e-03
000.06648 +3.295898e-03
000.06656 +5.493164e-03
000.06664 +5.493164e-03
000.06672 +4.394531e-03
000.06680 +8.422852e-03
000.06688 +5.493164e-03
000.06696 +5.126953e-03
000.06704 +5.126953e-03
000.06712 +6.591797e-03
000.06720 +4.394531e-03
000.06728 +3.662109e-03
000.06736 +3.295898e-03
000.06744 -3.295898e-03
000.06752 +5.126953e-03
000.06760 +6.958008e-03
000.06768 +6.958008e-03
000.06776 +1.464844e-02
000.06784 +4.028320e-03
000.06792 +4.760742e-03
000.06800 +3.662109e-03
000.06808 +1.464844e-02
000.06816 +3.295898e-03
000.06824 +1.208496e-02
000.06832 -3.662109e-04
000.06840 -8.789062e-03
000.06848 +5.126953e-03
000.06856 +3.662109e-03
000.06864 +3.662109e-03
000.06872 +3.662109e-03
000.06880 +3.662109e-03
000.06888 +4.028320e-03
000.06896 +3.662109e-03
000.06904 +1.098633e-03
000.06912 +2.563477e-03
000.06920 +1.831055e-03
000.06928 +3.295898e-03
000.06936 +3.295898e-03
000.06944 +4.028320e-03
000.06952 +5.126953e-03
000.06960 +4.760742e-03
000.06968 +4.760742e-03
000.06976 +5.493164e-03
000.06984 +7.690430e-03
000.06992 +5.859375e-03
000.07000 +1.794434e-02
000.07008 +5.493164e-03
000.07016 +5.126953e-03
000.07024 +5.859375e-03
000.07032 +6.591797e-03
000.07040 +6.225586e-03
000.07048 +1.208496e-02
000.07056 +7.324219e-03
000.07064 -2.929688e-03
000.07072 +6.958008e-03
000.07080 +6.591797e-03
000.07088 +7.324219e-03
000.07096 +1.098633e-02
000.07104 +5.859375e-03
000.07112 -3.662109e-03
000.07120 +4.394531e-03
000.07128 +1.831055e-03
000.07136 +4.760742e-03
000.07144 -6.958008e-03
000.07152 +3.662109e-03
000.07160 +6.591797e-03
000.07168 +3.295898e-03
000.07176 +2.197266e-03
000.07184 +4.028320e-03
000.07192 -9.155273e-03
000.07200 +4.028320e-03
000.07208 +4.028320e-03
000.07216 +3.662109e-03
000.07224 +3.662109e-03
000.07232 +2.929688e-03
000.07240 +4.394531e-03
000.07248 +5.493164e-03
000.07256 +5.126953e-03
000.07264 +4.028320e-03
000.07272 +5.126953e-03
000.07280 +4.760742e-03
000.07288 +4.394531e-03
000.07296 +5.859375e-03
000.07304 +4.760742e-03
000.07312 +4.760742e-03
000.07320 +1.464844e-03
000.07328 +5.126953e-03
000.07336 +2.197266e-03
000.07344 +2.929688e-03
000.07352 +2.563477e-03
000.07360 +3.662109e-03
000.07368 +2.197266e-03
000.07376 +4.760742e-03
000.07384 +9.887695e-03
000.07392 +8.422852e-03
000.07400 +1.428223e-02
000.07408 +4.394531e-03
000.07416 +4.028320e-03
000.07424 +3.662109e-03
000.07432 +2.929688e-03
000.07440 -6.225586e-03
000.07448 -4.028320e-03
000.07456 +3.662109e-04
000.07464 -5.493164e-03
000.07472 +2.197266e-03
000.07480 -1.831055e-03
000.07488 +2.563477e-03
000.07496 +2.929688e-03
000.07504 +4.760742e-03
000.07512 +2.600098e-02
000.07520 +2.526855e-02
000.07528 +5.493164e-03
000.07536 +4.394531e-03
000.07544 +5.126953e-03
000.07552 +6.225586e-03
000.07560 +5.859375e-03
000.07568 +6.958008e-03
000.07576 +6.958008e-03
000.07584 +5.493164e-03
000.07592 +5.126953e-03
000.07600 +6.591797e-03
000.07608 +5.126953e-03
000.07616 +6.225586e-03
000.07624 +4.760742e-03
000.07632 +4.394531e-03
000.07640 +3.662109e-03
000.07648 +2.563477e-03
000.07656 +4.760742e-03
000.07664 +7.324219e-03
000.07672 +6.225586e-03
000.07680 +3.295898e-03
000.07688 +4.760742e-03
000.07696 +5.126953e-03
000.07704 +4.760742e-03
000.07712 +4.760742e-03
000.07720 +8.056641e-03
000.07728 +5.126953e-03
000.07736 +1.062012e-02
000.07744 +6.225586e-03
000.07752 +5.859375e-03
000.07760 +3.662109e-03
000.07768 +7.324219e-04
000.07776 +3.662109e-03
000.07784 -2.563477e-03
000.07792 +5.126953e-03
000.07800 +3.662109e-03
000.07808 +6.591797e-03
000.07816 +7.324219e-03
000.07824 +5.859375e-03
000.07832 -5.493164e-03
000.07840 +3.295898e-03
000.07848 +1.831055e-02
000.07856 -5.126953e-03
000.07864 +8.056641e-03
000.07872 -5.126953e-03
000.07880 -1.831055e-03
000.07888 +5.126953e-03
000.07896 +7.324219e-03
000.07904 +8.056641e-03
000.07912 +6.958008e-03
000.07920 +7.690430e-03
000.07928 +8.056641e-03
000.07936 +8.056641e-03
000.07944 +4.394531e-03
000.07952 +1.062012e-02
000.07960 +8.422852e-03
000.07968 +6.591797e-03
000.07976 +6.225586e-03
000.07984 +4.760742e-03
000.07992 +5.493164e-03
000.08000 +5.859375e-03
000.08008 +5.859375e-03
000.08016 +4.394531e-03
000.08024 +6.225586e-03
000.08032 +4.760742e-03
000.08040 +5.859375e-03
000.08048 +5.493164e-03
000.08056 +4.394531e-03
000.08064 +7.324219e-03
000.08072 +4.760742e-03
000.08080 +8.056641e-03
000.08088 +8.789062e-03
000.08096 +5.126953e-03
000.08104 +6.958008e-03
000.08112 +6.958008e-03
000.08120 +5.126953e-03
000.08128 +8.056641e-03
000.08136 +8.422852e-03
000.08144 +5.126953e-03
000.08152 +1.831055e-03
000.08160 -1.464844e-03
000.08168 +1.611328e-02
000.08176 +7.324219e-03
000.08184 +3.076172e-02
000.08192 +6.958008e-03
000.08200 +7.324219e-03
000.08208 +0.000000e+00
000.08216 +8.422852e-03
000.08224 +6.958008e-03
000.08232 +1.721191e-02
000.08240 +5.126953e-03
000.08248 +5.859375e-03
000.08256 +4.394531e-03
000.08264 +3.295898e-03
000.08272 -8.422852e-03
000.08280 +2.929688e-03
000.08288 +4.394531e-03
000.08296 -1.464844e-03
000.08304 +0.000000e+00
000.08312 +5.493164e-03
000.08320 +5.493164e-03
000.08328 +5.493164e-03
000.08336 -1.831055e-03
000.08344 +6.591797e-03
000.08352 +6.225586e-03
000.08360 +6.958008e-03
000.08368 +6.958008e-03
000.08376 +6.958008e-03
000.08384 +4.394531e-03
000.08392 -4.028320e-03
000.08400 +4.394531e-03
000.08408 +5.126953e-03
000.08416 +5.126953e-03
000.08424 +3.662109e-03
000.08432 +6.958008e-03
000.08440 -8.056641e-03
000.08448 +4.760742e-03
000.08456 +7.324219e-03
000.08464 -2.563477e-03
000.08472 +6.958008e-03
000.08480 +7.690430e-03
000.08488 +1.501465e-02
000.08496 +6.958008e-03
000.08504 +8.056641e-03
000.08512 +6.958008e-03
000.08520 -1.867676e-02
000.08528 +6.225586e-03
000.08536 +1.318359e-02
000.08544 +1.977539e-02
000.08552 -5.126953e-03
000.08560 +1.025391e-02
000.08568 -4.394531e-03
000.08576 +6.591797e-03
000.08584 +6.958008e-03
000.08592 +7.324219e-03
000.08600 +6.958008e-03
000.08608 +6.225586e-03
000.08616 +6.958008e-03
000.08624 +6.225586e-03
000.08632 +7.324219e-03
000.08640 -7.690430e-03
000.08648 +8.056641e-03
000.08656 +9.521484e-03
000.08664 +8.422852e-03
000.08672 +8.789062e-03
000.08680 +9.887695e-03
000.08688 +9.521484e-03
000.08696 +8.422852e-03
000.08704 +8.422852e-03
000.08712 +7.324219e-03
000.08720 +7.324219e-03
000.08728 +7.690430e-03
000.08736 +9.155273e-03
000.08744 +8.056641e-03
000.08752 +1.025391e-02
000.08760 +1.245117e-02
000.08768 +1.025391e-02
000.08776 +2.563477e-03
000.08784 +8.056641e-03
000.08792 +8.422852e-03
000.08800 +7.324219e-03
000.08808 +5.493164e-03
000.08816 +7.690430e-03
000.08824 +1.098633e-03
000.08832 +7.690430e-03
000.08840 +7.324219e-03
000.08848 +7.690430e-03
000.08856 +6.591797e-03
000.08864 +7.324219e-03
000.08872 +1.611328e-02
000.08880 +7.690430e-03
000.08888 +7.324219e-03
000.08896 +8.422852e-03
000.08904 +8.056641e-03
000.08912 +3.662109e-03
000.08920 +8.422852e-03
000.08928 +8.422852e-03
000.08936 +6.958008e-03
000.08944 +7.690430e-03
000.08952 +6.225586e-03
000.08960 +9.155273e-03
000.08968 +7.690430e-03
000.08976 +1.831055e-02
000.08984 +9.155273e-03
000.08992 +7.690430e-03
000.09000 +9.521484e-03
000.09008 +8.056641e-03
000.09016 +1.025391e-02
000.09024 +1.062012e-02
000.09032 +8.789062e-03
000.09040 +1.245117e-02
000.09048 +1.538086e-02
000.09056 +7.324219e-03
000.09064 +8.056641e-03
000.09072 +1.062012e-02
000.09080 +1.025391e-02
000.09088 +1.135254e-02
000.09096 +1.062012e-02
000.09104 +9.155273e-03
000.09112 +1.245117e-02
000.09120 +7.690430e-03
000.09128 +1.062012e-02
000.09136 +5.126953e-03
000.09144 +7.324219e-04
000.09152 +5.126953e-03
000.09160 +1.501465e-02
000.09168 +4.028320e-03
000.09176 +7.324219e-03
000.09184 +7.690430e-03
000.09192 +6.225586e-03
000.09200 +7.690430e-03
000.09208 -1.464844e-03
000.09216 +6.591797e-03
000.09224 +5.493164e-03
000.09232 +1.977539e-02
000.09240 +1.831055e-02
000.09248 -1.464844e-03
000.09256 -1.574707e-02
000.09264 +1.904297e-02
000.09272 +8.056641e-03
000.09280 +8.789062e-03
000.09288 +8.789062e-03
000.09296 +7.324219e-03
000.09304 +9.887695e-03
000.09312 +8.422852e-03
000.09320 +6.958008e-03
000.09328 +4.394531e-03
000.09336 +7.324219e-03
000.09344 +6.591797e-03
000.09352 +6.958008e-03
000.09360 +5.493164e-03
000.09368 +7.324219e-03
000.09376 +6.958008e-03
000.09384 +7.690430e-03
000.09392 +8.056641e-03
000.09400 +3.295898e-03
000.09408 +6.225586e-03
000.09416 +1.464844e-03
000.09424 +5.493164e-03
000.09432 +8.789062e-03
000.09440 +4.394531e-03
000.09448 +9.155273e-03
000.09456 +9.155273e-03
000.09464 +3.662109e-04
000.09472 +3.295898e-03
000.09480 +3.662109e-03
000.09488 +3.662109e-03
000.09496 +8.789062e-03
000.09504 +5.493164e-03
000.09512 +2.124023e-02
000.09520 +6.225586e-03
000.09528 +5.493164e-03
000.09536 +5.493164e-03
000.09544 +5.126953e-03
000.09552 +6.591797e-03
000.09560 +1.721191e-02
000.09568 +7.690430e-03
000.09576 +1.318359e-02
000.09584 +1.171875e-02
000.09592 +8.422852e-03
000.09600 +7.690430e-03
000.09608 +1.025391e-02
000.09616 +7.690430e-03
000.09624 +8.789062e-03
000.09632 +7.324219e-03
000.09640 +6.591797e-03
000.09648 +6.591797e-03
000.09656 +9.155273e-03
000.09664 +5.493164e-03
000.09672 +5.859375e-03
000.09680 +2.563477e-03
000.09688 +6.591797e-03
000.09696 +6.591797e-03
000.09704 +6.958008e-03
000.09712 +7.324219e-03
000.09720 +8.056641e-03
000.09728 +8.056641e-03
000.09736 +5.493164e-03
000.09744 +6.225586e-03
000.09752 -3.662109e-03
000.09760 +7.324219e-03
000.09768 +7.324219e-03
000.09776 +6.958008e-03
000.09784 +2.563477e-03
000.09792 +8.056641e-03
000.09800 +6.958008e-03
000.09808 +9.887695e-03
000.09816 +6.225586e-03
000.09824 +1.318359e-02
000.09832 +8.789062e-03
000.09840 +6.958008e-03
000.09848 +1.135254e-02
000.09856 +8.789062e-03
000.09864 +8.056641e-03
000.09872 +7.324219e-03
000.09880 +6.958008e-03
000.09888 +1.025391e-02
000.09896 -1.354980e-02
000.09904 +8.422852e-03
000.09912 -1.611328e-02
000.09920 +1.538086e-02
000.09928 -1.428223e-02
000.09936 +9.521484e-03
000.09944 -1.464844e-03
000.09952 +2.050781e-02
000.09960 +9.155273e-03
000.09968 +8.056641e-03
000.09976 +8.056641e-03
000.09984 +9.521484e-03
000.09992 +8.056641e-03
000.10000 +1.098633e-03
000.10008 +8.056641e-03
000.10016 +8.422852e-03
000.10024 +6.958008e-03
000.10032 +7.324219e-03
000.10040 +5.859375e-03
000.10048 +8.789062e-03
000.10056 +4.394531e-03
000.10064 +7.690430e-03
000.10072 +7.690430e-03
000.10080 +6.225586e-03
000.10088 +5.126953e-03
000.10096 +9.155273e-03
000.10104 +3.295898e-03
000.10112 +8.789062e-03
000.10120 +1.428223e-02
000.10128 +1.208496e-02
000.10136 +1.062012e-02
000.10144 +1.281738e-02
000.10152 +1.757812e-02
000.10160 +1.025391e-02
000.10168 +8.422852e-03
000.10176 +9.155273e-03
000.10184 +4.394531e-03
000.10192 +1.831055e-03
000.10200 +1.574707e-02
000.10208 +9.155273e-03
000.10216 +2.783203e-02
000.10224 +8.422852e-03
000.10232 +6.958008e-03
000.10240 +5.493164e-03
000.10248 +4.760742e-03
000.10256 +6.225586e-03
000.10264 +6.591797e-03
000.10272 -7.324219e-04
000.10280 +5.859375e-03
000.10288 +8.056641e-03
000.10296 +6.958008e-03
000.10304 +7.324219e-03
000.10312 +5.493164e-03
000.10320 +6.591797e-03
000.10328 +6.591797e-03
000.10336 +5.493164e-03
000.10344 +1.171875e-02
000.10352 +7.324219e-03
000.10360 +4.394531e-03
000.10368 +6.591797e-03
000.10376 +5.859375e-03
000.10384 +4.394531e-03
000.10392 +5.859375e-03
000.10400 +2.929688e-03
000.10408 +6.958008e-03
000.10416 +7.324219e-03
000.10424 +7.690430e-03
000.10432 -1.098633e-03
000.10440 +9.887695e-03
000.10448 +8.056641e-03
000.10456 +6.958008e-03
000.10464 +9.521484e-03
000.10472 +9.887695e-03
000.10480 +8.789062e-03
000.10488 +5.126953e-03
000.10496 +9.887695e-03
000.10504 +8.056641e-03
000.10512 +8.056641e-03
000.10520 +9.521484e-03
000.10528 +7.690430e-03
000.10536 +1.208496e-02
000.10544 +5.859375e-03
000.10552 -4.028320e-03
000.10560 +5.859375e-03
000.10568 +5.493164e-03
000.10576 +6.225586e-03
000.10584 -4.760742e-03
000.10592 +4.760742e-03
000.10600 +7.324219e-04
000.10608 -1.794434e-02
000.10616 +7.690430e-03
000.10624 +5.126953e-03
000.10632 +7.324219e-03
000.10640 +6.958008e-03
000.10648 +7.324219e-03
000.10656 +7.690430e-03
000.10664 +9.521484e-03
000.10672 +9.521484e-03
000.10680 +9.155273e-03
000.10688 +7.690430e-03
000.10696 +8.422852e-03
000.10704 +9.155273e-03
000.10712 +7.324219e-03
000.10720 +7.690430e-03
000.10728 +1.281738e-02
000.10736 +8.056641e-03
000.10744 +6.591797e-03
000.10752 +7.690430e-03
000.10760 +8.789062e-03
000.10768 +9.155273e-03
000.10776 +1.135254e-02
000.10784 +8.789062e-03
000.10792 +5.126953e-03
000.10800 +6.225586e-03
000.10808 +4.760742e-03
000.10816 +7.324219e-03
000.10824 +1.318359e-02
000.10832 +1.171875e-02
000.10840 +1.867676e-02
000.10848 +7.324219e-03
000.10856 +8.056641e-03
000.10864 +8.056641e-03
000.10872 +1.684570e-02
000.10880 +8.789062e-03
000.10888 +5.859375e-03
000.10896 +6.225586e-03
000.10904 +6.591797e-03
000.10912 +7.690430e-03
000.10920 +1.647949e-02
000.10928 +8.056641e-03
000.10936 -1.831055e-03
000.10944 +6.591797e-03
000.10952 +5.126953e-03
000.10960 +2.709961e-02
000.10968 +8.422852e-03
000.10976 -7.324219e-04
000.10984 +6.958008e-03
000.10992 +6.958008e-03
000.11000 +8.056641e-03
000.11008 +7.324219e-03
000.11016 +9.155273e-03
000.11024 +8.789062e-03
000.11032 +1.831055e-02
000.11040 +8.789062e-03
000.11048 +9.155273e-03
000.11056 +9.887695e-03
000.11064 +8.789062e-03
000.11072 +1.098633e-02
000.11080 +1.281738e-02
000.11088 +9.155273e-03
000.11096 +9.155273e-03
000.11104 +5.859375e-03
000.11112 +9.521484e-03
000.11120 +5.126953e-03
000.11128 +1.025391e-02
000.11136 +7.324219e-03
000.11144 +5.493164e-03
000.11152 +5.859375e-03
000.11160 +8.056641e-03
000.11168 +5.493164e-03
000.11176 +3.662109e-04
000.11184 +7.324219e-03
000.11192 +1.025391e-02
000.11200 -2.929688e-03
000.11208 -3.662109e-04
000.11216 +7.690430e-03
000.11224 +1.025391e-02
000.11232 +8.056641e-03
000.11240 +1.098633e-02
000.11248 +9.521484e-03
000.11256 +8.789062e-03
000.11264 +8.056641e-03
000.11272 +1.025391e-02
000.11280 +1.647949e-02
000.11288 -4.028320e-03
000.11296 -1.171875e-02
000.11304 -7.324219e-03
000.11312 +1.538086e-02
000.11320 -9.521484e-03
000.11328 +7.324219e-03
000.11336 +8.056641e-03
000.11344 +7.324219e-03
000.11352 +7.690430e-03
000.11360 +7.690430e-03
000.11368 +7.324219e-03
000.11376 +9.155273e-03
000.11384 +8.056641e-03
000.11392 +8.422852e-03
000.11400 +7.690430e-03
000.11408 +7.690430e-03
000.11416 +7.690430e-03
000.11424 +7.690430e-03
000.11432 +6.591797e-03
000.11440 +3.662109e-03
000.11448 +8.422852e-03
000.11456 +5.126953e-03
000.11464 +8.422852e-03
000.11472 +6.958008e-03
000.11480 +6.225586e-03
000.11488 +5.493164e-03
000.11496 +5.859375e-03
000.11504 +5.126953e-03
000.11512 +1.098633e-02
000.11520 +9.887695e-03
000.11528 +8.056641e-03
000.11536 +6.225586e-03
000.11544 +7.690430e-03
000.11552 +7.690430e-03
000.11560 +1.611328e-02
000.11568 +9.887695e-03
000.11576 +1.794434e-02
000.11584 +1.062012e-02
000.11592 +1.318359e-02
000.11600 +1.281738e-02
000.11608 +1.867676e-02
000.11616 +1.025391e-02
000.11624 +1.940918e-02
000.11632 +9.155273e-03
000.11640 +9.155273e-03
000.11648 +9.521484e-03
000.11656 +8.789062e-03
000.11664 +8.789062e-03
000.11672 +8.056641e-03
000.11680 +1.281738e-02
000.11688 +8.789062e-03
000.11696 +8.789062e-03
000.11704 +9.521484e-03
000.11712 +1.208496e-02
000.11720 +2.197266e-02
000.11728 +1.281738e-02
000.11736 +1.098633e-02
000.11744 +1.025391e-02
000.11752 +9.887695e-03
000.11760 +9.521484e-03
000.11768 +9.521484e-03
000.11776 +9.887695e-03
000.11784 +9.521484e-03
000.11792 +7.690430e-03
000.11800 +1.538086e-02
000.11808 +8.056641e-03
000.11816 +9.887695e-03
000.11824 +1.391602e-02
000.11832 +8.056641e-03
000.11840 +1.098633e-02
000.11848 +1.318359e-02
000.11856 +1.098633e-02
000.11864 +1.318359e-02
000.11872 +1.135254e-02
000.11880 +2.563477e-03
000.11888 +1.098633e-02
000.11896 +6.958008e-03
000.11904 +1.025391e-02
000.11912 +1.025391e-02
000.11920 +1.135254e-02
000.11928 +1.208496e-02
000.11936 +1.098633e-02
000.11944 +1.574707e-02
000.11952 +8.789062e-03
000.11960 -1.098633e-02
000.11968 +1.062012e-02
000.11976 -1.171875e-02
000.11984 -2.197266e-03
000.11992 +6.958008e-03
000.12000 +9.155273e-03
000.12008 +2.160645e-02
000.12016 +1.025391e-02
000.12024 +9.155273e-03
000.12032 +9.521484e-03
000.12040 +8.789062e-03
000.12048 +8.056641e-03
000.12056 +8.056641e-03
000.12064 +9.155273e-03
000.12072 +9.155273e-03
000.12080 +8.789062e-03
000.12088 +9.521484e-03
000.12096 +1.062012e-02
000.12104 +1.025391e-02
000.12112 +1.611328e-02
000.12120 +1.025391e-02
000.12128 +1.391602e-02
000.12136 +1.464844e-02
000.12144 +1.318359e-02
000.12152 +1.062012e-02
000.12160 +1.208496e-02
000.12168 +1.245117e-02
000.12176 +1.171875e-02
000.12184 +1.794434e-02
000.12192 +1.171875e-02
000.12200 +9.521484e-03
000.12208 +1.611328e-02
000.12216 +1.135254e-02
000.12224 +1.025391e-02
000.12232 +8.789062e-03
000.12240 +7.324219e-03
000.12248 +2.563477e-02
000.12256 +7.690430e-03
000.12264 +6.958008e-03
000.12272 +9.521484e-03
000.12280 +5.859375e-03
000.12288 +8.422852e-03
000.12296 +8.789062e-03
000.12304 +3.662109e-03
000.12312 +2.160645e-02
000.12320 +8.422852e-03
000.12328 -1.098633e-03
000.12336 -3.662109e-03
000.12344 +2.014160e-02
000.12352 +7.690430e-03
000.12360 +8.789062e-03
000.12368 +1.062012e-02
000.12376 +8.056641e-03
000.12384 +6.591797e-03
000.12392 +9.521484e-03
000.12400 +9.155273e-03
000.12408 +2.233887e-02
000.12416 -1.098633e-03
000.12424 +6.958008e-03
000.12432 +1.098633e-02
000.12440 +9.887695e-03
000.12448 +1.025391e-02
000.12456 +1.098633e-02
000.12464 +1.062012e-02
000.12472 +1.062012e-02
000.12480 +2.197266e-03
000.12488 +1.391602e-02
000.12496 +1.171875e-02
000.12504 +1.098633e-03
000.12512 +1.098633e-02
000.12520 +9.887695e-03
000.12528 +9.887695e-03
000.12536 +1.062012e-02
000.12544 +9.887695e-03
000.12552 +8.789062e-03
000.12560 +8.056641e-03
000.12568 +8.056641e-03
000.12576 +7.324219e-03
000.12584 +3.662109e-03
000.12592 +8.056641e-03
000.12600 -7.324219e-04
000.12608 +8.422852e-03
000.12616 +5.493164e-03
000.12624 +1.098633e-02
000.12632 +1.098633e-02
000.12640 +1.098633e-02
000.12648 +1.721191e-02
000.12656 +1.208496e-02
000.12664 +8.056641e-03
000.12672 +1.281738e-02
000.12680 +1.208496e-02
000.12688 +1.135254e-02
000.12696 +2.014160e-02
000.12704 +1.062012e-02
000.12712 +1.135254e-02
000.12720 +9.887695e-03
000.12728 +9.521484e-03
000.12736 +1.135254e-02
000.12744 +1.062012e-02
000.12752 +9.887695e-03
000.12760 +1.098633e-02
000.12768 +1.281738e-02
000.12776 +9.887695e-03
000.12784 +1.098633e-02
000.12792 +9.521484e-03
000.12800 +1.098633e-02
000.12808 +1.098633e-02
000.12816 +2.380371e-02
000.12824 +1.208496e-02
000.12832 +1.025391e-02
000.12840 +1.281738e-02
000.12848 +1.025391e-02
000.12856 +9.887695e-03
000.12864 +8.789062e-03
000.12872 +1.281738e-02
000.12880 +8.789062e-03
000.12888 +6.591797e-03
000.12896 +1.464844e-02
000.12904 -2.929688e-03
000.12912 +8.422852e-03
000.12920 +9.887695e-03
000.12928 +1.025391e-02
000.12936 +1.025391e-02
000.12944 -3.662109e-04
000.12952 +1.062012e-02
000.12960 +9.155273e-03
000.12968 +2.050781e-02
000.12976 +1.098633e-02
000.12984 +2.233887e-02
000.12992 +1.171875e-02
000.13000 +1.464844e-02
000.13008 +1.062012e-02
000.13016 +1.464844e-02
000.13024 +1.428223e-02
000.13032 +4.760742e-03
000.13040 +1.428223e-02
000.13048 +1.208496e-02
000.13056 +1.354980e-02
000.13064 +1.428223e-02
000.13072 +1.208496e-02
000.13080 +1.171875e-02
000.13088 +1.501465e-02
000.13096 +2.233887e-02
000.13104 +1.208496e-02
000.13112 +1.025391e-02
000.13120 +9.155273e-03
000.13128 +9.521484e-03
000.13136 +8.422852e-03
000.13144 +8.056641e-03
000.13152 +5.126953e-03
000.13160 +6.958008e-03
000.13168 +7.324219e-03
000.13176 +1.098633e-02
000.13184 +9.155273e-03
000.13192 +8.056641e-03
000.13200 +1.098633e-02
000.13208 +9.521484e-03
000.13216 +7.324219e-03
000.13224 +7.324219e-03
000.13232 +9.521484e-03
000.13240 +9.521484e-03
000.13248 +1.025391e-02
000.13256 +6.225586e-03
000.13264 +9.155273e-03
000.13272 +1.098633e-03
000.13280 +1.062012e-02
000.13288 +1.354980e-02
000.13296 +1.098633e-02
000.13304 +1.611328e-02
000.13312 +9.521484e-03
000.13320 +8.789062e-03
000.13328 +6.591797e-03
000.13336 +6.958008e-03
000.13344 +1.245117e-02
000.13352 -1.501465e-02
000.13360 +1.354980e-02
000.13368 +1.428223e-02
000.13376 +1.647949e-02
000.13384 +2.270508e-02
000.13392 +2.124023e-02
000.13400 +9.887695e-03
000.13408 +9.521484e-03
000.13416 +1.171875e-02
000.13424 +8.056641e-03
000.13432 +7.690430e-03
000.13440 +8.789062e-03
000.13448 +8.056641e-03
000.13456 +8.422852e-03
000.13464 +7.690430e-03
000.13472 +7.324219e-03
000.13480 +7.324219e-03
000.13488 +7.690430e-03
000.13496 +8.056641e-03
000.13504 +1.171875e-02
000.13512 +7.324219e-03
000.13520 +8.789062e-03
000.13528 +4.028320e-03
000.13536 +7.324219e-03
000.13544 +7.690430e-03
000.13552 +7.690430e-03
000.13560 +1.245117e-02
000.13568 +1.062012e-02
000.13576 +7.324219e-03
000.13584 +1.318359e-02
000.13592 +1.428223e-02
000.13600 +1.025391e-02
000.13608 +1.062012e-02
000.13616 +1.098633e-02
000.13624 +8.422852e-03
000.13632 +1.062012e-02
000.13640 -9.887695e-03
000.13648 +6.958008e-03
000.13656 +8.422852e-03
000.13664 +8.789062e-03
000.13672 +3.002930e-02
000.13680 +8.422852e-03
000.13688 +8.422852e-03
000.13696 +9.521484e-03
000.13704 +8.789062e-03
000.13712 +9.887695e-03
000.13720 +1.281738e-02
000.13728 +1.281738e-02
000.13736 +9.887695e-03
000.13744 +7.324219e-03
000.13752 +8.789062e-03
000.13760 +8.056641e-03
000.13768 +1.062012e-02
000.13776 +1.062012e-02
000.13784 +2.380371e-02
000.13792 +8.789062e-03
000.13800 +1.025391e-02
000.13808 +1.098633e-02
000.13816 +1.171875e-02
000.13824 +1.208496e-02
000.13832 +1.062012e-02
000.13840 +1.940918e-02
000.13848 +8.422852e-03
000.13856 +8.056641e-03
000.13864 +1.135254e-02
000.13872 +9.521484e-03
000.13880 +9.521484e-03
000.13888 +1.062012e-02
000.13896 +1.098633e-02
000.13904 +9.887695e-03
000.13912 +1.721191e-02
000.13920 +1.025391e-02
000.13928 +1.062012e-02
000.13936 +1.135254e-02
000.13944 +7.690430e-03
000.13952 +1.171875e-02
000.13960 +1.135254e-02
000.13968 +1.098633e-02
000.13976 +1.354980e-02
000.13984 +1.281738e-02
000.13992 +3.662109e-03
000.14000 +9.155273e-03
000.14008 +1.025391e-02
000.14016 +9.887695e-03
000.14024 +3.076172e-02
000.14032 +9.521484e-03
000.14040 +3.662109e-03
000.14048 -1.501465e-02
000.14056 +9.521484e-03
000.14064 -2.563477e-03
000.14072 -8.422852e-03
000.14080 +9.155273e-03
000.14088 +7.690430e-03
000.14096 +9.887695e-03
000.14104 +8.422852e-03
000.14112 +1.135254e-02
000.14120 +1.135254e-02
000.14128 +1.281738e-02
000.14136 +1.391602e-02
000.14144 +1.062012e-02
000.14152 +1.354980e-02
000.14160 +1.464844e-02
000.14168 +1.318359e-02
000.14176 +1.391602e-02
000.14184 +3.295898e-03
000.14192 +1.354980e-02
000.14200 +1.464844e-02
000.14208 +1.245117e-02
000.14216 +1.171875e-02
000.14224 +1.245117e-02
000.14232 +1.281738e-02
000.14240 +1.062012e-02
000.14248 +1.171875e-02
000.14256 +1.062012e-02
000.14264 +1.501465e-02
000.14272 +1.171875e-02
000.14280 +8.056641e-03
000.14288 +1.025391e-02
000.14296 +8.422852e-03
000.14304 +9.521484e-03
000.14312 +1.757812e-02
000.14320 +1.171875e-02
000.14328 +1.098633e-03
000.14336 +7.324219e-03
000.14344 +9.521484e-03
000.14352 +3.295898e-03
000.14360 +1.574707e-02
000.14368 +1.025391e-02
000.14376 +3.222656e-02
000.14384 +9.887695e-03
000.14392 +4.394531e-03
000.14400 +5.493164e-03
000.14408 +7.690430e-03
000.14416 +1.318359e-02
000.14424 +1.135254e-02
000.14432 +9.155273e-03
000.14440 +1.062012e-02
000.14448 +1.062012e-02
000.14456 +1.391602e-02
000.14464 +1.062012e-02
000.14472 +1.684570e-02
000.14480 +1.245117e-02
000.14488 +1.391602e-02
000.14496 +1.281738e-02
000.14504 +1.208496e-02
000.14512 +1.171875e-02
000.14520 +9.887695e-03
000.14528 +8.056641e-03
000.14536 +8.789062e-03
000.14544 +1.025391e-02
000.14552 +1.098633e-02
000.14560 +6.225586e-03
000.14568 +4.394531e-03
000.14576 +1.062012e-02
000.14584 +1.025391e-02
000.14592 +9.521484e-03
000.14600 +1.391602e-02
000.14608 +1.098633e-02
000.14616 +8.789062e-03
000.14624 +9.521484e-03
000.14632 +6.958008e-03
000.14640 +1.098633e-02
000.14648 +5.126953e-03
000.14656 +9.521484e-03
000.14664 +1.757812e-02
000.14672 +1.281738e-02
000.14680 +2.563477e-03
000.14688 +1.135254e-02
000.14696 +1.428223e-02
000.14704 +1.098633e-02
000.14712 +1.318359e-02
000.14720 +9.155273e-03
000.14728 +1.025391e-02
000.14736 +2.307129e-02
000.14744 +1.025391e-02
000.14752 +1.025391e-02
000.14760 +2.233887e-02
000.14768 +9.521484e-03
000.14776 +1.135254e-02
000.14784 +1.098633e-02
000.14792 +9.887695e-03
000.14800 +1.318359e-02
000.14808 +9.521484e-03
000.14816 +8.056641e-03
000.14824 +1.062012e-02
000.14832 +1.098633e-02
000.14840 +1.098633e-02
000.14848 +9.887695e-03
000.14856 +1.098633e-02
000.14864 +8.056641e-03
000.14872 +9.887695e-03
000.14880 +9.155273e-03
000.14888 +8.789062e-03
000.14896 +1.135254e-02
000.14904 +9.521484e-03
000.14912 +1.025391e-02
000.14920 +1.684570e-02
000.14928 +1.098633e-02
000.14936 +1.647949e-02
000.14944 +1.062012e-02
000.14952 +1.171875e-02
000.14960 +1.281738e-02
000.14968 +8.056641e-03
000.14976 +1.025391e-02
000.14984 +1.171875e-02
000.14992 +1.428223e-02
000.15000 +1.464844e-02
000.15008 +1.025391e-02
000.15016 +2.416992e-02
000.15024 +1.171875e-02
000.15032 +1.977539e-02
000.15040 +1.354980e-02
000.15048 +3.332520e-02
000.15056 +1.354980e-02
000.15064 +2.233887e-02
000.15072 +1.538086e-02
000.15080 +3.515625e-02
000.15088 +3.479004e-02
000.15096 +9.887695e-03
000.15104 +1.245117e-02
000.15112 +1.025391e-02
000.15120 +1.171875e-02
000.15128 +9.521484e-03
000.15136 +7.690430e-03
000.15144 +8.789062e-03
000.15152 +8.422852e-03
000.15160 +1.098633e-02
000.15168 +9.155273e-03
000.15176 +8.422852e-03
000.15184 +9.521484e-03
000.15192 +8.789062e-03
000.15200 +1.025391e-02
000.15208 +1.062012e-02
000.15216 +7.690430e-03
000.15224 +8.056641e-03
000.15232 +9.155273e-03
000.15240 +8.056641e-03
000.15248 +9.887695e-03
000.15256 +8.422852e-03
000.15264 +1.025391e-02
000.15272 +1.135254e-02
000.15280 +1.025391e-02
000.15288 +1.318359e-02
000.15296 +9.521484e-03
000.15304 +1.391602e-02
000.15312 +1.062012e-02
000.15320 +1.464844e-02
000.15328 +1.062012e-02
000.15336 +3.295898e-03
000.15344 +1.025391e-02
000.15352 +5.126953e-03
000.15360 +1.062012e-02
000.15368 +8.789062e-03
000.15376 +6.591797e-03
000.15384 +9.155273e-03
000.15392 +9.155273e-03
000.15400 +1.647949e-02
000.15408 +6.958008e-03
000.15416 +9.521484e-03
000.15424 -1.464844e-02
000.15432 -1.098633e-03
000.15440 +7.324219e-03
000.15448 +1.904297e-02
000.15456 +1.062012e-02
000.15464 +8.056641e-03
000.15472 +7.690430e-03
000.15480 +8.056641e-03
000.15488 +8.056641e-03
000.15496 +7.324219e-03
000.15504 +7.690430e-03
000.15512 +7.690430e-03
000.15520 +9.155273e-03
000.15528 +9.521484e-03
000.15536 +9.521484e-03
000.15544 +1.025391e-02
000.15552 +1.025391e-02
000.15560 +9.887695e-03
000.15568 +9.887695e-03
000.15576 +1.538086e-02
000.15584 +1.135254e-02
000.15592 +9.155273e-03
000.15600 +1.281738e-02
000.15608 -1.281738e-02
000.15616 +1.098633e-02
000.15624 +9.887695e-03
000.15632 +8.789062e-03
000.15640 +1.464844e-02
000.15648 +1.135254e-02
000.15656 +1.904297e-02
000.15664 +8.422852e-03
000.15672 +8.422852e-03
000.15680 +8.789062e-03
000.15688 +1.831055e-03
000.15696 +1.025391e-02
000.15704 +2.197266e-03
000.15712 +9.155273e-03
000.15720 +1.904297e-02
000.15728 +1.025391e-02
000.15736 +3.149414e-02
000.15744 +9.887695e-03
000.15752 +8.056641e-03
000.15760 +9.155273e-03
000.15768 +7.324219e-03
000.15776 +6.591797e-03
000.15784 +9.521484e-03
000.15792 +8.422852e-03
000.15800 +9.887695e-03
000.15808 +1.098633e-02
000.15816 +1.171875e-02
000.15824 +1.171875e-02
000.15832 +1.025391e-02
000.15840 +1.098633e-02
000.15848 +6.225586e-03
000.15856 +1.135254e-02
000.15864 +7.690430e-03
000.15872 +1.025391e-02
000.15880 +1.245117e-02
000.15888 +1.025391e-02
000.15896 +1.281738e-02
000.15904 +9.887695e-03
000.15912 +8.789062e-03
000.15920 +9.887695e-03
000.15928 +1.501465e-02
000.15936 +1.062012e-02
000.15944 +1.135254e-02
000.15952 +1.281738e-02
000.15960 +1.245117e-02
000.15968 +9.521484e-03
000.15976 +7.324219e-03
000.15984 +1.135254e-02
000.15992 +1.098633e-02
000.16000 +9.521484e-03
000.16008 +8.789062e-03
000.16016 +1.208496e-02
000.16024 +4.394531e-03
000.16032 +9.887695e-03
000.16040 +0.000000e+00
000.16048 +9.521484e-03
000.16056 +7.324219e-03
000.16064 +8.056641e-03
000.16072 +7.690430e-03
000.16080 +7.324219e-03
000.16088 +1.391602e-02
000.16096 +7.690430e-03
000.16104 +1.904297e-02
000.16112 +0.000000e+00
000.16120 +9.521484e-03
000.16128 +1.171875e-02
000.16136 +1.098633e-02
000.16144 +1.721191e-02
000.16152 +1.171875e-02
000.16160 +1.208496e-02
000.16168 +1.647949e-02
000.16176 +1.245117e-02
000.16184 +1.171875e-02
000.16192 +1.171875e-02
000.16200 +1.171875e-02
000.16208 +6.958008e-03
000.16216 +1.135254e-02
000.16224 +1.062012e-02
000.16232 +9.155273e-03
000.16240 +1.538086e-02
000.16248 +9.887695e-03
000.16256 +7.690430e-03
000.16264 +9.155273e-03
000.16272 +1.025391e-02
000.16280 +1.135254e-02
000.16288 +8.422852e-03
000.16296 +1.135254e-02
000.16304 +9.887695e-03
000.16312 +1.245117e-02
000.16320 +7.690430e-03
000.16328 +9.155273e-03
000.16336 +6.591797e-03
000.16344 +4.394531e-03
000.16352 +9.521484e-03
000.16360 +8.789062e-03
000.16368 +9.521484e-03
000.16376 +8.056641e-03
000.16384 +1.062012e-02
000.16392 +6.591797e-03
000.16400 +1.464844e-03
000.16408 +9.155273e-03
000.16416 +9.155273e-03
000.16424 +1.464844e-02
000.16432 +1.062012e-02
000.16440 +5.126953e-03
000.16448 +9.155273e-03
000.16456 +2.929688e-02
000.16464 +6.225586e-03
000.16472 +1.062012e-02
000.16480 +1.025391e-02
000.16488 +1.098633e-02
000.16496 +9.521484e-03
000.16504 +1.062012e-02
000.16512 +9.155273e-03
000.16520 +9.887695e-03
000.16528 +1.574707e-02
000.16536 +3.662109e-03
000.16544 +1.831055e-03
000.16552 +7.324219e-03
000.16560 +7.690430e-03
000.16568 +6.225586e-03
000.16576 +5.493164e-03
000.16584 +6.591797e-03
000.16592 +5.859375e-03
000.16600 +8.056641e-03
000.16608 +1.281738e-02
000.16616 +4.760742e-03
000.16624 +8.056641e-03
000.16632 +2.124023e-02
000.16640 +8.422852e-03
000.16648 +7.324219e-03
000.16656 +1.135254e-02
000.16664 +1.354980e-02
000.16672 +8.789062e-03
000.16680 +1.281738e-02
000.16688 +8.422852e-03
000.16696 +1.794434e-02
000.16704 +1.098633e-02
000.16712 +1.208496e-02
000.16720 +1.025391e-02
000.16728 +1.464844e-02
000.16736 +8.789062e-03
000.16744 +0.000000e+00
000.16752 +9.155273e-03
000.16760 +1.171875e-02
000.16768 +9.887695e-03
000.16776 +9.887695e-03
000.16784 +2.124023e-02
000.16792 +6.958008e-03
000.16800 +4.028320e-03
000.16808 +1.062012e-02
000.16816 +2.014160e-02
000.16824 +1.098633e-02
000.16832 +2.197266e-03
000.16840 +8.789062e-03
000.16848 +6.958008e-03
000.16856 +8.789062e-03
000.16864 +8.789062e-03
000.16872 +8.789062e-03
000.16880 +8.056641e-03
000.16888 +8.789062e-03
000.16896 +8.056641e-03
000.16904 +5.493164e-03
000.16912 +7.324219e-03
000.16920 +9.521484e-03
000.16928 +8.056641e-03
000.16936 +1.098633e-02
000.16944 +1.098633e-02
000.16952 +9.887695e-03
000.16960 +1.025391e-02
000.16968 +7.690430e-03
000.16976 +9.887695e-03
000.16984 +1.171875e-02
000.16992 +9.521484e-03
000.17000 +1.245117e-02
000.17008 +1.098633e-02
000.17016 +8.422852e-03
000.17024 +9.887695e-03
000.17032 +1.098633e-02
000.17040 +1.281738e-02
000.17048 +1.062012e-02
000.17056 +1.208496e-02
000.17064 +2.929688e-03
000.17072 +1.098633e-02
000.17080 +2.929688e-03
000.17088 +1.135254e-02
000.17096 +1.904297e-02
000.17104 +1.208496e-02
000.17112 +1.281738e-02
000.17120 +1.062012e-02
000.17128 +1.318359e-02
000.17136 +8.789062e-03
000.17144 +8.056641e-03
000.17152 +7.324219e-03
000.17160 +7.690430e-03
000.17168 +5.859375e-03
000.17176 +9.521484e-03
000.17184 +7.690430e-03
000.17192 +8.789062e-03
000.17200 +9.155273e-03
000.17208 +7.324219e-03
000.17216 +5.859375e-03
000.17224 -3.295898e-03
000.17232 +7.690430e-03
000.17240 +8.789062e-03
000.17248 +8.422852e-03
000.17256 +8.422852e-03
000.17264 +9.521484e-03
000.17272 +9.521484e-03
000.17280 +9.521484e-03
000.17288 +8.789062e-03
000.17296 +9.155273e-03
000.17304 +7.324219e-04
000.17312 +9.521484e-03
000.17320 +8.422852e-03
000.17328 +9.155273e-03
000.17336 +7.690430e-03
000.17344 +9.521484e-03
000.17352 +3.662109e-03
000.17360 +7.690430e-03
000.17368 +1.647949e-02
000.17376 +8.056641e-03
000.17384 +1.281738e-02
000.17392 +8.056641e-03
000.17400 +1.464844e-03
000.17408 +8.789062e-03
000.17416 +6.225586e-03
000.17424 +7.324219e-03
000.17432 +7.324219e-03
000.17440 +7.324219e-03
000.17448 +6.591797e-03
000.17456 +5.126953e-03
000.17464 +1.098633e-02
000.17472 +6.958008e-03
000.17480 +7.324219e-04
000.17488 +1.062012e-02
000.17496 -3.662109e-04
000.17504 +6.591797e-03
000.17512 +1.098633e-03
000.17520 +1.062012e-02
000.17528 +8.056641e-03
000.17536 +8.789062e-03
000.17544 +9.155273e-03
000.17552 +5.859375e-03
000.17560 +8.056641e-03
000.17568 +9.887695e-03
000.17576 +1.428223e-02
000.17584 +1.098633e-02
000.17592 +9.887695e-03
000.17600 +1.025391e-02
000.17608 +9.521484e-03
000.17616 +8.422852e-03
000.17624 +8.789062e-03
000.17632 +7.324219e-03
000.17640 +9.521484e-03
000.17648 +1.062012e-02
000.17656 +1.062012e-02
000.17664 +9.521484e-03
000.17672 +9.521484e-03
000.17680 +9.887695e-03
000.17688 +1.135254e-02
000.17696 +9.521484e-03
000.17704 +7.324219e-04
000.17712 +9.521484e-03
000.17720 +5.859375e-03
000.17728 +1.721191e-02
000.17736 +1.135254e-02
000.17744 +1.062012e-02
000.17752 +1.354980e-02
000.17760 +9.521484e-03
000.17768 +1.831055e-02
000.17776 +9.521484e-03
000.17784 -1.538086e-02
000.17792 +7.690430e-03
000.17800 +1.684570e-02
000.17808 +1.171875e-02
000.17816 -1.208496e-02
000.17824 +1.025391e-02
000.17832 +1.025391e-02
000.17840 +2.490234e-02
000.17848 +1.062012e-02
000.17856 +2.124023e-02
000.17864 +1.135254e-02
000.17872 +9.521484e-03
000.17880 +1.098633e-02
000.17888 +9.155273e-03
000.17896 +9.155273e-03
000.17904 +1.135254e-02
000.17912 -5.859375e-03
000.17920 +1.062012e-02
000.17928 +1.062012e-02
000.17936 +1.025391e-02
000.17944 +9.155273e-03
000.17952 +9.155273e-03
000.17960 +1.208496e-02
000.17968 +9.887695e-03
000.17976 +9.521484e-03
000.17984 +1.025391e-02
000.17992 +1.098633e-02
000.18000 +1.025391e-02
000.18008 +1.538086e-02
000.18016 +8.422852e-03
000.18024 +8.789062e-03
000.18032 +6.591797e-03
000.18040 +1.062012e-02
000.18048 +8.056641e-03
000.18056 +8.422852e-03
000.18064 +6.591797e-03
000.18072 +4.394531e-03
000.18080 +8.056641e-03
000.18088 +5.493164e-03
000.18096 +8.056641e-03
000.18104 +4.760742e-03
000.18112 +9.521484e-03
000.18120 -3.662109e-04
000.18128 +1.062012e-02
000.18136 +1.062012e-02
000.18144 +1.208496e-02
000.18152 +3.369141e-02
000.18160 +1.171875e-02
000.18168 +2.014160e-02
000.18176 +8.056641e-03
000.18184 +1.135254e-02
000.18192 +1.208496e-02
000.18200 +2.197266e-03
000.18208 +9.155273e-03
000.18216 +1.025391e-02
000.18224 +9.521484e-03
000.18232 +8.789062e-03
000.18240 +8.422852e-03
000.18248 +7.324219e-03
000.18256 +9.155273e-03
000.18264 +9.887695e-03
000.18272 +8.056641e-03
000.18280 +6.225586e-03
000.18288 +6.225586e-03
000.18296 +8.056641e-03
000.18304 +8.789062e-03
000.18312 +7.690430e-03
000.18320 +3.662109e-04
000.18328 +8.056641e-03
000.18336 +1.025391e-02
000.18344 +3.295898e-03
000.18352 +7.690430e-03
000.18360 +8.422852e-03
000.18368 +7.324219e-03
000.18376 +8.422852e-03
000.18384 +5.859375e-03
000.18392 +2.709961e-02
000.18400 +6.591797e-03
000.18408 -1.391602e-02
000.18416 +6.958008e-03
000.18424 +8.056641e-03
000.18432 +8.422852e-03
000.18440 +8.422852e-03
000.18448 +7.324219e-03
000.18456 +1.831055e-03
000.18464 +8.056641e-03
000.18472 +1.611328e-02
000.18480 +2.270508e-02
000.18488 +1.391602e-02
000.18496 +9.521484e-03
000.18504 -1.464844e-02
000.18512 +8.056641e-03
000.18520 +2.819824e-02
000.18528 +4.028320e-03
000.18536 +6.958008e-03
000.18544 -7.324219e-04
000.18552 +1.208496e-02
000.18560 +8.056641e-03
000.18568 +6.225586e-03
000.18576 +7.324219e-03
000.18584 +7.690430e-03
000.18592 +6.591797e-03
000.18600 -1.354980e-02
000.18608 +5.126953e-03
000.18616 +6.958008e-03
000.18624 +4.394531e-03
000.18632 +8.056641e-03
000.18640 +6.958008e-03
000.18648 +8.056641e-03
000.18656 +1.025391e-02
000.18664 +1.062012e-02
000.18672 +7.690430e-03
000.18680 +1.098633e-02
000.18688 +9.521484e-03
000.18696 +9.521484e-03
000.18704 +1.025391e-02
000.18712 +9.521484e-03
000.18720 +9.887695e-03
000.18728 +2.929688e-03
000.18736 +8.422852e-03
000.18744 +1.098633e-02
000.18752 +7.690430e-03
000.18760 +7.690430e-03
000.18768 +1.171875e-02
000.18776 +8.056641e-03
000.18784 +9.155273e-03
000.18792 +1.208496e-02
000.18800 +8.056641e-03
000.18808 +1.245117e-02
000.18816 +6.958008e-03
000.18824 +8.789062e-03
000.18832 +6.591797e-03
000.18840 +1.721191e-02
000.18848 +6.958008e-03
000.18856 +5.493164e-03
000.18864 +2.160645e-02
000.18872 +3.662109e-03
000.18880 +8.422852e-03
000.18888 -3.662109e-04
000.18896 +1.171875e-02
000.18904 +8.056641e-03
000.18912 +8.422852e-03
000.18920 +1.098633e-02
000.18928 +8.056641e-03
000.18936 +7.324219e-03
000.18944 +8.422852e-03
000.18952 +8.056641e-03
000.18960 +6.591797e-03
000.18968 +8.056641e-03
000.18976 +8.422852e-03
000.18984 +8.056641e-03
000.18992 +8.056641e-03
000.19000 +9.155273e-03
000.19008 +1.098633e-02
000.19016 +7.690430e-03
000.19024 +9.887695e-03
000.19032 +1.098633e-02
000.19040 +9.155273e-03
000.19048 +1.098633e-02
000.19056 +1.171875e-02
000.19064 +8.056641e-03
000.19072 +9.887695e-03
000.19080 +7.324219e-03
000.19088 +9.521484e-03
000.19096 -3.662109e-04
000.19104 +9.887695e-03
000.19112 +8.789062e-03
000.19120 +7.690430e-03
000.19128 -7.324219e-04
000.19136 +1.135254e-02
000.19144 +1.464844e-02
000.19152 +5.493164e-03
000.19160 +9.521484e-03
000.19168 +5.493164e-03
000.19176 -5.493164e-03
000.19184 +6.958008e-03
000.19192 -5.859375e-03
000.19200 +4.394531e-03
000.19208 +8.422852e-03
000.19216 +1.245117e-02
000.19224 +3.662109e-04
000.19232 +1.428223e-02
000.19240 +7.324219e-03
000.19248 +5.493164e-03
000.19256 +8.056641e-03
000.19264 +8.056641e-03
000.19272 +6.958008e-03
000.19280 +6.591797e-03
000.19288 -1.208496e-02
000.19296 +1.025391e-02
000.19304 +7.324219e-03
000.19312 +7.690430e-03
000.19320 +6.591797e-03
000.19328 +7.690430e-03
000.19336 +6.958008e-03
000.19344 +1.354980e-02
000.19352 +5.493164e-03
000.19360 +5.126953e-03
000.19368 +7.324219e-03
000.19376 +7.324219e-03
000.19384 +1.171875e-02
000.19392 +7.690430e-03
000.19400 +8.789062e-03
000.19408 +7.690430e-03
000.19416 +5.493164e-03
000.19424 +5.493164e-03
000.19432 +5.126953e-03
000.19440 +4.028320e-03
000.19448 -2.563477e-03
000.19456 +5.126953e-03
000.19464 +4.028320e-03
000.19472 +4.394531e-03
000.19480 +3.662109e-03
000.19488 +4.028320e-03
000.19496 +1.464844e-02
000.19504 +5.126953e-03
000.19512 +6.591797e-03
000.19520 +5.493164e-03
000.19528 +9.155273e-03
000.19536 +6.958008e-03
000.19544 -3.295898e-03
000.19552 +1.428223e-02
000.19560 +1.684570e-02
000.19568 +9.887695e-03
000.19576 -1.098633e-03
000.19584 +7.324219e-03
000.19592 +1.464844e-03
000.19600 +7.690430e-03
000.19608 +6.591797e-03
000.19616 +8.056641e-03
000.19624 +7.690430e-03
000.19632 +7.324219e-03
000.19640 +1.464844e-02
000.19648 -1.098633e-03
000.19656 +7.690430e-03
000.19664 +5.859375e-03
000.19672 +5.859375e-03
000.19680 +3.295898e-03
000.19688 +5.493164e-03
000.19696 +4.028320e-03
000.19704 +5.126953e-03
000.19712 +5.126953e-03
000.19720 +6.958008e-03
000.19728 +7.324219e-03
000.19736 +4.760742e-03
000.19744 +6.591797e-03
000.19752 +1.464844e-02
000.19760 +6.225586e-03
000.19768 +6.591797e-03
000.19776 +7.324219e-04
000.19784 +6.225586e-03
000.19792 +7.690430e-03
000.19800 +4.394531e-03
000.19808 +8.422852e-03
000.19816 -2.563477e-03
000.19824 +5.859375e-03
000.19832 +7.690430e-03
000.19840 +6.958008e-03
000.19848 +8.422852e-03
000.19856 -4.760742e-03
000.19864 -3.295898e-03
000.19872 +8.422852e-03
000.19880 +1.208496e-02
000.19888 +8.789062e-03
000.19896 +1.135254e-02
000.19904 +8.789062e-03
000.19912 +5.859375e-03
000.19920 -1.464844e-03
000.19928 +7.324219e-03
000.19936 +8.422852e-03
000.19944 +5.859375e-03
000.19952 +6.591797e-03
000.19960 +8.789062e-03
000.19968 +9.155273e-03
000.19976 -6.225586e-03
000.19984 +4.394531e-03
000.19992 +6.958008e-03
000.20000 +7.690430e-03
000.20008 +7.324219e-03
000.20016 +9.887695e-03
000.20024 +6.591797e-03
000.20032 +6.225586e-03
000.20040 +5.859375e-03
000.20048 +3.295898e-03
000.20056 +5.493164e-03
000.20064 +7.690430e-03
000.20072 +5.859375e-03
000.20080 +4.760742e-03
000.20088 +5.126953e-03
000.20096 +5.493164e-03
000.20104 +9.521484e-03
000.20112 +5.126953e-03
000.20120 +1.574707e-02
000.20128 +8.056641e-03
000.20136 +1.208496e-02
000.20144 +7.324219e-03
000.20152 +1.135254e-02
000.20160 +9.521484e-03
000.20168 +8.056641e-03
000.20176 +8.422852e-03
000.20184 -2.563477e-03
000.20192 +1.208496e-02
000.20200 +1.464844e-03
000.20208 +8.056641e-03
000.20216 +1.135254e-02
000.20224 +7.324219e-03
000.20232 -2.929688e-03
000.20240 +1.647949e-02
000.20248 +9.521484e-03
000.20256 +6.591797e-03
000.20264 -2.563477e-03
000.20272 +1.135254e-02
000.20280 +5.493164e-03
000.20288 +5.859375e-03
000.20296 +6.225586e-03
000.20304 +1.611328e-02
000.20312 +4.760742e-03
000.20320 +4.760742e-03
000.20328 +4.028320e-03
000.20336 +6.958008e-03
000.20344 -8.789062e-03
000.20352 +5.859375e-03
000.20360 +5.493164e-03
000.20368 +3.662109e-03
000.20376 +3.662109e-03
000.20384 +2.929688e-03
000.20392 +2.197266e-03
000.20400 +2.563477e-03
000.20408 -7.324219e-04
000.20416 +8.422852e-03
000.20424 +1.062012e-02
000.20432 +4.760742e-03
000.20440 +8.056641e-03
000.20448 +7.690430e-03
000.20456 +3.662109e-04
000.20464 +1.098633e-03
000.20472 +9.887695e-03
000.20480 +8.056641e-03
000.20488 +7.690430e-03
000.20496 +1.208496e-02
000.20504 +1.098633e-03
000.20512 +7.324219e-03
000.20520 -7.324219e-04
000.20528 +7.324219e-03
000.20536 -3.662109e-03
000.20544 +6.225586e-03
000.20552 -1.611328e-02
000.20560 +7.690430e-03
000.20568 +2.929688e-03
000.20576 +3.295898e-03
000.20584 +4.760742e-03
000.20592 +2.233887e-02
000.20600 +4.028320e-03
000.20608 +5.126953e-03
000.20616 +6.225586e-03
000.20624 +5.859375e-03
000.20632 +6.225586e-03
000.20640 +5.859375e-03
000.20648 +9.155273e-03
000.20656 +6.225586e-03
000.20664 -6.591797e-03
000.20672 +7.690430e-03
000.20680 +8.422852e-03
000.20688 +6.958008e-03
000.20696 +6.958008e-03
000.20704 +5.126953e-03
000.20712 +8.789062e-03
000.20720 +8.056641e-03
000.20728 +5.493164e-03
000.20736 +6.591797e-03
000.20744 +6.225586e-03
000.20752 +8.422852e-03
000.20760 +4.394531e-03
000.20768 +5.859375e-03
000.20776 +6.958008e-03
000.20784 +6.591797e-03
000.20792 +1.098633e-02
000.20800 +6.591797e-03
000.20808 +1.062012e-02
000.20816 +6.591797e-03
000.20824 -5.126953e-03
000.20832 +5.126953e-03
000.20840 +2.563477e-03
000.20848 +8.056641e-03
000.20856 +1.428223e-02
000.20864 +5.859375e-03
000.20872 +5.126953e-03
000.20880 +4.394531e-03
000.20888 +5.126953e-03
000.20896 +6.225586e-03
000.20904 +4.028320e-03
000.20912 +5.859375e-03
000.20920 +6.225586e-03
000.20928 +5.493164e-03
000.20936 +5.126953e-03
000.20944 +9.155273e-03
000.20952 -2.929688e-03
000.20960 +5.493164e-03
000.20968 +5.493164e-03
000.20976 +4.394531e-03
000.20984 +5.859375e-03
000.20992 +5.859375e-03
000.21000 +6.958008e-03
000.21008 +5.859375e-03
000.21016 +6.958008e-03
000.21024 +4.028320e-03
000.21032 +8.056641e-03
000.21040 +7.324219e-03
000.21048 +7.324219e-03
000.21056 +8.056641e-03
000.21064 +8.056641e-03
000.21072 +9.887695e-03
000.21080 +8.789062e-03
000.21088 +9.521484e-03
000.21096 +1.098633e-02
000.21104 +6.225586e-03
000.21112 +9.521484e-03
000.21120 +6.591797e-03
000.21128 +4.760742e-03
000.21136 +5.493164e-03
000.21144 +4.394531e-03
000.21152 -3.662109e-04
000.21160 +0.000000e+00
000.21168 +1.281738e-02
000.21176 +4.760742e-03
000.21184 +5.493164e-03
000.21192 +1.135254e-02
000.21200 +2.929688e-03
000.21208 -2.197266e-03
000.21216 +4.394531e-03
000.21224 -1.831055e-03
000.21232 +4.028320e-03
000.21240 +3.662109e-04
000.21248 +4.394531e-03
000.21256 +0.000000e+00
000.21264 +6.591797e-03
000.21272 -9.521484e-03
000.21280 +6.591797e-03
000.21288 +5.859375e-03
000.21296 +1.098633e-03
000.21304 +5.493164e-03
000.21312 +1.098633e-03
000.21320 +6.225586e-03
000.21328 +5.859375e-03
000.21336 +4.394531e-03
000.21344 +2.929688e-03
000.21352 +5.859375e-03
000.21360 +5.126953e-03
000.21368 +5.859375e-03
000.21376 +4.760742e-03
000.21384 +5.859375e-03
000.21392 +1.831055e-03
000.21400 +5.493164e-03
000.21408 +9.521484e-03
000.21416 +8.422852e-03
000.21424 +1.464844e-03
000.21432 +7.690430e-03
000.21440 +5.859375e-03
000.21448 +1.098633e-03
000.21456 +4.028320e-03
000.21464 +5.126953e-03
000.21472 +2.929688e-03
000.21480 +6.591797e-03
000.21488 +2.929688e-03
000.21496 +3.295898e-03
000.21504 +2.929688e-03
000.21512 +3.662109e-03
000.21520 +7.690430e-03
000.21528 +1.391602e-02
000.21536 +4.760742e-03
000.21544 +1.281738e-02
000.21552 +4.028320e-03
000.21560 -5.859375e-03
000.21568 +5.493164e-03
000.21576 +6.591797e-03
000.21584 +6.225586e-03
000.21592 +1.245117e-02
000.21600 +6.958008e-03
000.21608 +7.324219e-03
000.21616 +2.343750e-02
000.21624 -6.225586e-03
000.21632 +6.958008e-03
000.21640 +6.225586e-03
000.21648 +6.225586e-03
000.21656 +6.591797e-03
000.21664 +5.126953e-03
000.21672 +5.126953e-03
000.21680 +5.859375e-03
000.21688 +8.056641e-03
000.21696 +4.394531e-03
000.21704 +6.591797e-03
000.21712 -4.028320e-03
000.21720 +6.958008e-03
000.21728 +5.493164e-03
000.21736 +5.493164e-03
000.21744 +2.929688e-03
000.21752 +6.591797e-03
000.21760 +4.394531e-03
000.21768 +1.831055e-03
000.21776 +5.859375e-03
000.21784 -1.684570e-02
000.21792 +5.859375e-03
000.21800 -3.662109e-03
000.21808 +5.493164e-03
000.21816 +1.464844e-03
000.21824 +5.859375e-03
000.21832 +1.025391e-02
000.21840 +2.563477e-03
000.21848 +5.859375e-03
000.21856 +5.126953e-03
000.21864 +6.591797e-03
000.21872 +5.859375e-03
000.21880 -7.324219e-04
000.21888 +7.324219e-03
000.21896 +5.859375e-03
000.21904 +4.760742e-03
000.21912 +6.225586e-03
000.21920 +6.591797e-03
000.21928 +7.324219e-04
000.21936 -7.690430e-03
000.21944 +5.126953e-03
000.21952 +5.859375e-03
000.21960 +6.958008e-03
000.21968 +1.062012e-02
000.21976 +6.591797e-03
000.21984 +5.859375e-03
000.21992 +4.394531e-03
000.22000 +3.662109e-03
000.22008 +4.394531e-03
000.22016 +4.394531e-03
000.22024 +4.760742e-03
000.22032 +4.028320e-03
000.22040 +1.281738e-02
000.22048 +3.295898e-03
000.22056 +3.662109e-03
000.22064 +2.929688e-03
000.22072 +3.295898e-03
000.22080 +2.197266e-03
000.22088 +3.295898e-03
000.22096 +4.394531e-03
000.22104 +2.197266e-03
000.22112 +2.929688e-03
000.22120 +6.958008e-03
000.22128 +1.062012e-02
000.22136 +1.464844e-03
000.22144 +7.324219e-04
000.22152 +8.056641e-03
000.22160 +7.690430e-03
000.22168 +1.867676e-02
000.22176 +7.324219e-03
000.22184 +5.493164e-03
000.22192 +6.591797e-03
000.22200 +6.958008e-03
000.22208 +5.859375e-03
000.22216 +3.662109e-03
000.22224 +1.538086e-02
000.22232 +1.098633e-02
000.22240 +4.760742e-03
000.22248 +1.281738e-02
000.22256 +3.662109e-03
000.22264 +3.295898e-03
000.22272 +4.760742e-03
000.22280 +2.929688e-03
000.22288 -2.380371e-02
000.22296 +2.197266e-02
000.22304 +1.464844e-03
000.22312 +2.563477e-03
000.22320 +3.662109e-03
000.22328 +2.416992e-02
000.22336 +2.197266e-03
000.22344 +3.295898e-03
000.22352 +4.394531e-03
000.22360 +1.464844e-03
000.22368 +3.662109e-03
000.22376 +4.760742e-03
000.22384 +1.611328e-02
000.22392 +3.662109e-03
000.22400 +3.662109e-03
000.22408 +2.929688e-03
000.22416 +1.464844e-03
000.22424 +4.394531e-03
000.22432 +6.958008e-03
000.22440 +1.098633e-03
000.22448 +4.394531e-03
000.22456 +6.225586e-03
000.22464 +6.225586e-03
000.22472 +8.056641e-03
000.22480 +6.958008e-03
000.22488 +6.958008e-03
000.22496 +7.324219e-03
000.22504 +5.859375e-03
000.22512 +8.422852e-03
000.22520 +1.135254e-02
000.22528 +7.690430e-03
000.22536 +6.225586e-03
000.22544 +5.126953e-03
000.22552 +5.493164e-03
000.22560 +4.394531e-03
000.22568 +1.171875e-02
000.22576 +4.394531e-03
000.22584 +5.126953e-03
000.22592 +1.464844e-03
000.22600 +7.324219e-04
000.22608 +4.028320e-03
000.22616 -1.831055e-02
000.22624 +4.028320e-03
000.22632 +5.126953e-03
000.22640 +5.126953e-03
000.22648 +1.354980e-02
000.22656 +2.929688e-03
000.22664 +5.126953e-03
000.22672 +7.324219e-03
000.22680 +8.422852e-03
000.22688 +1.391602e-02
000.22696 +6.591797e-03
000.22704 +7.690430e-03
000.22712 +5.493164e-03
000.22720 +4.394531e-03
000.22728 +1.794434e-02
000.22736 +6.225586e-03
000.22744 +4.394531e-03
000.22752 +4.394531e-03
000.22760 +5.493164e-03
000.22768 +6.591797e-03
000.22776 +5.493164e-03
000.22784 +6.591797e-03
000.22792 +4.760742e-03
000.22800 +7.324219e-04
000.22808 +6.591797e-03
000.22816 +1.062012e-02
000.22824 +5.126953e-03
000.22832 +2.563477e-03
000.22840 +3.662109e-03
000.22848 +4.760742e-03
000.22856 -6.591797e-03
000.22864 +3.662109e-03
000.22872 +3.662109e-03
000.22880 +4.394531e-03
000.22888 +1.208496e-02
000.22896 +4.394531e-03
000.22904 +7.324219e-03
000.22912 +4.394531e-03
000.22920 +5.859375e-03
000.22928 +5.126953e-03
000.22936 -3.662109e-03
000.22944 +4.760742e-03
000.22952 +4.760742e-03
000.22960 +3.662109e-03
000.22968 -2.929688e-03
000.22976 +6.225586e-03
000.22984 +4.394531e-03
000.22992 +3.662109e-04
000.23000 +9.521484e-03
000.23008 -2.929688e-03
000.23016 +2.819824e-02
000.23024 +5.859375e-03
000.23032 +6.225586e-03
000.23040 +8.422852e-03
000.23048 +6.958008e-03
000.23056 +5.859375e-03
000.23064 +7.324219e-03
000.23072 +5.493164e-03
000.23080 +7.690430e-03
000.23088 +6.958008e-03
000.23096 +6.958008e-03
000.23104 +5.126953e-03
000.23112 +1.831055e-03
000.23120 +4.760742e-03
000.23128 +4.394531e-03
000.23136 +4.760742e-03
000.23144 +1.098633e-03
000.23152 +2.929688e-03
000.23160 -2.197266e-03
000.23168 +1.464844e-03
000.23176 +2.563477e-03
000.23184 -7.324219e-04
000.23192 -3.662109e-03
000.23200 +7.324219e-04
000.23208 -7.324219e-04
000.23216 -2.563477e-03
000.23224 +2.929688e-03
000.23232 +3.662109e-03
000.23240 +2.929688e-03
000.23248 +3.295898e-03
000.23256 -2.929688e-03
000.23264 +6.958008e-03
000.23272 +1.391602e-02
000.23280 +2.563477e-03
000.23288 +7.324219e-04
000.23296 +5.493164e-03
000.23304 +2.563477e-03
000.23312 +2.929688e-03
000.23320 +1.464844e-02
000.23328 +2.563477e-03
000.23336 -7.324219e-03
000.23344 +1.391602e-02
000.23352 +8.056641e-03
000.23360 +4.394531e-03
000.23368 +3.662109e-03
000.23376 +3.662109e-03
000.23384 +4.028320e-03
000.23392 +6.958008e-03
000.23400 +4.028320e-03
000.23408 +1.464844e-03
000.23416 +1.281738e-02
000.23424 +4.760742e-03
000.23432 +2.563477e-03
000.23440 -3.662109e-04
000.23448 +2.197266e-03
000.23456 -1.831055e-03
000.23464 +2.197266e-03
000.23472 +1.831055e-03
000.23480 +2.563477e-03
000.23488 +4.028320e-03
000.23496 -3.662109e-04
000.23504 +1.464844e-03
000.23512 -2.563477e-03
000.23520 +1.831055e-03
000.23528 +5.493164e-03
000.23536 +2.929688e-03
000.23544 +7.690430e-03
000.23552 +4.028320e-03
000.23560 +5.126953e-03
000.23568 +4.028320e-03
000.23576 +7.324219e-03
000.23584 +5.493164e-03
000.23592 +1.464844e-02
000.23600 +5.493164e-03
000.23608 +9.887695e-03
000.23616 +5.859375e-03
000.23624 +5.493164e-03
000.23632 +6.225586e-03
000.23640 +6.225586e-03
000.23648 +6.958008e-03
000.23656 +1.684570e-02
000.23664 +3.295898e-03
000.23672 +5.126953e-03
000.23680 +3.295898e-03
000.23688 +4.760742e-03
000.23696 +6.958008e-03
000.23704 +1.281738e-02
000.23712 +2.563477e-03
000.23720 +5.126953e-03
000.23728 +2.563477e-03
000.23736 +5.126953e-03
000.23744 +4.760742e-03
000.23752 +5.126953e-03
000.23760 +4.760742e-03
000.23768 +4.394531e-03
000.23776 -9.521484e-03
000.23784 +4.394531e-03
000.23792 +3.295898e-03
000.23800 +1.025391e-02
000.23808 +4.394531e-03
000.23816 +6.225586e-03
000.23824 +6.225586e-03
000.23832 +4.028320e-03
000.23840 +6.225586e-03
000.23848 +5.126953e-03
000.23856 +4.760742e-03
000.23864 +5.859375e-03
000.23872 +8.422852e-03
000.23880 +1.098633e-03
000.23888 +6.225586e-03
000.23896 +4.394531e-03
000.23904 +3.662109e-04
000.23912 +1.428223e-02
000.23920 +2.929688e-03
000.23928 +5.126953e-03
000.23936 +4.760742e-03
000.23944 +4.760742e-03
000.23952 +6.225586e-03
000.23960 +8.422852e-03
000.23968 +7.324219e-03
000.23976 +1.831055e-03
000.23984 +5.493164e-03
000.23992 -2.160645e-02
000.24000 +3.662109e-03
000.24008 +5.126953e-03
000.24016 +3.662109e-03
000.24024 +1.684570e-02
000.24032 +6.958008e-03
000.24040 +2.929688e-03
000.24048 +1.464844e-03
000.24056 +3.295898e-03
000.24064 +3.295898e-03
000.24072 +4.760742e-03
000.24080 +4.028320e-03
000.24088 +4.028320e-03
000.24096 +2.563477e-03
000.24104 +8.422852e-03
000.24112 +3.662109e-03
000.24120 +5.493164e-03
000.24128 +5.859375e-03
000.24136 +6.958008e-03
000.24144 +8.422852e-03
000.24152 +6.958008e-03
000.24160 +2.197266e-03
000.24168 +1.098633e-02
000.24176 +9.155273e-03
000.24184 +4.394531e-03
000.24192 +5.126953e-03
000.24200 +6.591797e-03
000.24208 +7.690430e-03
000.24216 +3.295898e-03
000.24224 +5.493164e-03
000.24232 +8.056641e-03
000.24240 +8.422852e-03
000.24248 +3.662109e-04
000.24256 +5.126953e-03
000.24264 +7.324219e-04
000.24272 +4.394531e-03
000.24280 +1.098633e-02
000.24288 +3.662109e-03
000.24296 +1.098633e-02
000.24304 +2.929688e-03
000.24312 -3.662109e-04
000.24320 -9.887695e-03
000.24328 +4.028320e-03
000.24336 +3.295898e-03
000.24344 +8.789062e-03
000.24352 +3.295898e-03
000.24360 +7.324219e-04
000.24368 +2.087402e-02
000.24376 -9.887695e-03
000.24384 +2.929688e-03
000.24392 +3.332520e-02
000.24400 +2.563477e-03
000.24408 +2.563477e-03
000.24416 +2.929688e-03
000.24424 +3.295898e-03
000.24432 +3.662109e-03
000.24440 +5.126953e-03
000.24448 +4.028320e-03
000.24456 +4.760742e-03
000.24464 +2.563477e-02
000.24472 -3.295898e-03
000.24480 +4.028320e-03
000.24488 +6.591797e-03
000.24496 +6.591797e-03
000.24504 +5.126953e-03
000.24512 +6.225586e-03
000.24520 +5.126953e-03
000.24528 +4.760742e-03
000.24536 +5.493164e-03
000.24544 +5.493164e-03
000.24552 +8.056641e-03
000.24560 +3.295898e-03
000.24568 +1.098633e-03
000.24576 +3.295898e-03
000.24584 +7.324219e-04
000.24592 -2.563477e-03
000.24600 +8.422852e-03
000.24608 -3.295898e-03
000.24616 +7.324219e-04
000.24624 +1.098633e-03
000.24632 +3.662109e-03
000.24640 +3.295898e-03
000.24648 +5.126953e-03
000.24656 +4.394531e-03
000.24664 +9.521484e-03
000.24672 +4.028320e-03
000.24680 -2.124023e-02
000.24688 +5.859375e-03
000.24696 +2.197266e-03
000.24704 +3.662109e-03
000.24712 +3.662109e-03
000.24720 -7.324219e-03
000.24728 +3.295898e-03
000.24736 +2.197266e-03
000.24744 +4.028320e-03
000.24752 +4.394531e-03
000.24760 +1.464844e-03
000.24768 +6.958008e-03
000.24776 +3.662109e-03
000.24784 +3.662109e-03
000.24792 +6.591797e-03
000.24800 +4.760742e-03
000.24808 +4.394531e-03
000.24816 +2.929688e-03
000.24824 +3.662109e-03
000.24832 +3.295898e-03
000.24840 +1.831055e-03
000.24848 +2.563477e-03
000.24856 +2.563477e-03
000.24864 +2.197266e-03
000.24872 +5.126953e-03
000.24880 +4.760742e-03
000.24888 +6.591797e-03
000.24896 +3.295898e-03
000.24904 +2.197266e-03
000.24912 +3.662109e-03
000.24920 -1.354980e-02
000.24928 +5.859375e-03
000.24936 +1.318359e-02
000.24944 +3.662109e-03
000.24952 +1.831055e-03
000.24960 +3.662109e-03
000.24968 +2.563477e-03
000.24976 +8.056641e-03
000.24984 +0.000000e+00
000.24992 +5.126953e-03
000.25000 +5.126953e-03
000.25008 +3.295898e-03
000.25016 +2.929688e-03
000.25024 +4.394531e-03
000.25032 +1.391602e-02
000.25040 +4.394531e-03
000.25048 +7.324219e-04
000.25056 +7.690430e-03
000.25064 -1.098633e-02
000.25072 +6.591797e-03
000.25080 +2.490234e-02
000.25088 +6.225586e-03
000.25096 +6.225586e-03
000.25104 +4.760742e-03
000.25112 +4.394531e-03
000.25120 +4.760742e-03
000.25128 +1.464844e-03
000.25136 -1.208496e-02
000.25144 +7.324219e-04
000.25152 +1.464844e-03
000.25160 +7.324219e-04
000.25168 -1.098633e-03
000.25176 -3.662109e-04
000.25184 -4.028320e-03
000.25192 +1.831055e-03
000.25200 +4.760742e-03
000.25208 +2.563477e-03
000.25216 +1.464844e-03
000.25224 +1.464844e-03
000.25232 +2.563477e-03
000.25240 +5.859375e-03
000.25248 +2.929688e-03
000.25256 +6.591797e-03
000.25264 +3.662109e-03
000.25272 +3.662109e-03
000.25280 -1.464844e-03
000.25288 +9.887695e-03
000.25296 +3.662109e-03
000.25304 +3.295898e-03
000.25312 +2.563477e-03
000.25320 +8.789062e-03
000.25328 -4.760742e-03
000.25336 +3.662109e-03
000.25344 +4.028320e-03
000.25352 +2.197266e-03
000.25360 +3.295898e-03
000.25368 -1.464844e-03
000.25376 +2.929688e-03
000.25384 -2.929688e-03
000.25392 +2.563477e-03
000.25400 +1.098633e-03
000.25408 +5.126953e-03
000.25416 +2.197266e-03
000.25424 +2.197266e-03
000.25432 +5.126953e-03
000.25440 +7.324219e-04
000.25448 +1.098633e-03
000.25456 +1.098633e-03
000.25464 +3.662109e-04
000.25472 +1.098633e-03
000.25480 +0.000000e+00
000.25488 -1.098633e-03
000.25496 -7.324219e-04
000.25504 -3.662109e-04
000.25512 +3.662109e-04
000.25520 +2.197266e-03
000.25528 +1.464844e-03
000.25536 +3.295898e-03
000.25544 +5.859375e-03
000.25552 +6.591797e-03
000.25560 +3.295898e-03
000.25568 +4.028320e-03
000.25576 +3.662109e-03
000.25584 +5.126953e-03
000.25592 +4.394531e-03
000.25600 +4.760742e-03
000.25608 +3.295898e-03
000.25616 +5.126953e-03
000.25624 +6.591797e-03
000.25632 +3.295898e-03
000.25640 +3.662109e-03
000.25648 +1.831055e-03
000.25656 +1.208496e-02
000.25664 +7.324219e-04
000.25672 +2.929688e-03
000.25680 +3.662109e-04
000.25688 +0.000000e+00
000.25696 +1.831055e-03
000.25704 +7.324219e-04
000.25712 +2.929688e-03
000.25720 +1.721191e-02
000.25728 +4.394531e-03
000.25736 +6.225586e-03
000.25744 +7.324219e-03
000.25752 +0.000000e+00
000.25760 +2.929688e-03
000.25768 +1.574707e-02
000.25776 +4.394531e-03
000.25784 +2.929688e-03
000.25792 +3.295898e-03
000.25800 +4.394531e-03
000.25808 +5.126953e-03
000.25816 +3.295898e-03
000.25824 +7.324219e-04
000.25832 +4.760742e-03
000.25840 +4.028320e-03
000.25848 +4.028320e-03
000.25856 +5.859375e-03
000.25864 +5.493164e-03
000.25872 +4.394531e-03
000.25880 +4.760742e-03
000.25888 +5.493164e-03
000.25896 +4.028320e-03
000.25904 +4.760742e-03
000.25912 +4.760742e-03
000.25920 +4.028320e-03
000.25928 +1.098633e-03
000.25936 +2.929688e-03
000.25944 -3.662109e-04
000.25952 +3.662109e-03
000.25960 +2.929688e-03
000.25968 +0.000000e+00
000.25976 +6.958008e-03
000.25984 +1.098633e-03
000.25992 +4.028320e-03
000.26000 +7.324219e-04
000.26008 +6.225586e-03
000.26016 -6.225586e-03
000.26024 -4.394531e-03
000.26032 +2.197266e-03
000.26040 +5.493164e-03
000.26048 +2.197266e-03
000.26056 +4.028320e-03
000.26064 -1.098633e-03
000.26072 +1.098633e-03
000.26080 +2.563477e-03
000.26088 +8.422852e-03
000.26096 +2.197266e-02
000.26104 -7.324219e-03
000.26112 +1.831055e-03
000.26120 -3.662109e-04
000.26128 -3.662109e-04
000.26136 +4.394531e-03
000.26144 +5.126953e-03
000.26152 +5.859375e-03
000.26160 +5.859375e-03
000.26168 +3.662109e-03
000.26176 +3.662109e-03
000.26184 +4.760742e-03
000.26192 +6.591797e-03
000.26200 -1.098633e-02
000.26208 +2.929688e-03
000.26216 +4.394531e-03
000.26224 +5.493164e-03
000.26232 +5.859375e-03
000.26240 +2.563477e-03
000.26248 +2.563477e-03
000.26256 +4.028320e-03
000.26264 +0.000000e+00
000.26272 +1.574707e-02
000.26280 +1.464844e-03
000.26288 +1.464844e-03
000.26296 -2.929688e-03
000.26304 +7.324219e-04
000.26312 +1.831055e-03
000.26320 +3.662109e-04
000.26328 -5.859375e-03
000.26336 +0.000000e+00
000.26344 -1.025391e-02
000.26352 +2.563477e-03
000.26360 -4.028320e-03
000.26368 +1.831055e-03
000.26376 -7.324219e-04
000.26384 +4.760742e-03
000.26392 +3.662109e-04
000.26400 +7.324219e-04
000.26408 -1.245117e-02
000.26416 +1.281738e-02
000.26424 -2.233887e-02
000.26432 -4.028320e-03
000.26440 +5.859375e-03
000.26448 +6.225586e-03
000.26456 +5.859375e-03
000.26464 +2.929688e-03
000.26472 +4.028320e-03
000.26480 +2.929688e-03
000.26488 +4.760742e-03
000.26496 +6.591797e-03
000.26504 +4.028320e-03
000.26512 +2.563477e-03
000.26520 +1.464844e-03
000.26528 +7.324219e-04
000.26536 +2.197266e-03
000.26544 +3.662109e-04
000.26552 +1.831055e-03
000.26560 +1.464844e-03
000.26568 +7.324219e-04
000.26576 +2.929688e-03
000.26584 +3.662109e-04
000.26592 +7.324219e-04
000.26600 +1.831055e-03
000.26608 +0.000000e+00
000.26616 +2.270508e-02
000.26624 +0.000000e+00
000.26632 +4.394531e-03
000.26640 -7.324219e-04
000.26648 -7.324219e-04
000.26656 -1.098633e-03
000.26664 +8.789062e-03
000.26672 +2.197266e-03
000.26680 +2.563477e-03
000.26688 +5.126953e-03
000.26696 +1.062012e-02
000.26704 +2.929688e-03
000.26712 +1.208496e-02
000.26720 +5.126953e-03
000.26728 +9.155273e-03
000.26736 +1.025391e-02
000.26744 +1.171875e-02
000.26752 +3.295898e-03
000.26760 +2.929688e-03
000.26768 +1.464844e-03
000.26776 +2.563477e-03
000.26784 -6.225586e-03
000.26792 +2.563477e-03
000.26800 +4.028320e-03
000.26808 +1.831055e-03
000.26816 +2.563477e-03
000.26824 +2.563477e-03
000.26832 +1.098633e-03
000.26840 +1.831055e-03
000.26848 +1.831055e-03
000.26856 +1.464844e-03
000.26864 +2.929688e-03
000.26872 -7.324219e-04
000.26880 +1.098633e-03
000.26888 +1.831055e-03
000.26896 +1.464844e-03
000.26904 -1.098633e-03
000.26912 +2.929688e-03
000.26920 +1.464844e-03
000.26928 +2.929688e-03
000.26936 +1.464844e-03
000.26944 +4.028320e-03
000.26952 +3.295898e-03
000.26960 +3.662109e-04
000.26968 +2.197266e-03
000.26976 +2.197266e-03
000.26984 +2.929688e-03
000.26992 +3.295898e-03
000.27000 +5.859375e-03
000.27008 +3.295898e-03
000.27016 +3.662109e-03
000.27024 -5.493164e-03
000.27032 +1.025391e-02
000.27040 +6.591797e-03
000.27048 +1.464844e-02
000.27056 +5.493164e-03
000.27064 +4.028320e-03
000.27072 +4.394531e-03
000.27080 +5.859375e-03
000.27088 +5.859375e-03
000.27096 +1.171875e-02
000.27104 +5.859375e-03
000.27112 +8.789062e-03
000.27120 -8.422852e-03
000.27128 +2.929688e-03
000.27136 +3.295898e-03
000.27144 +2.563477e-03
000.27152 +1.098633e-03
000.27160 +4.760742e-03
000.27168 +2.929688e-03
000.27176 +1.464844e-03
000.27184 -7.324219e-04
000.27192 +1.464844e-03
000.27200 +1.464844e-03
000.27208 +7.324219e-04
000.27216 +1.098633e-03
000.27224 +2.197266e-03
000.27232 +2.929688e-03
000.27240 -5.126953e-03
000.27248 +3.662109e-04
000.27256 +2.197266e-03
000.27264 +2.197266e-03
000.27272 +1.831055e-03
000.27280 +2.929688e-03
000.27288 -7.324219e-04
000.27296 +2.563477e-03
000.27304 +2.929688e-03
000.27312 +2.197266e-03
000.27320 -7.324219e-04
000.27328 +2.197266e-03
000.27336 +5.859375e-03
000.27344 +7.324219e-04
000.27352 +4.394531e-03
000.27360 +7.324219e-04
000.27368 +2.929688e-03
000.27376 +2.929688e-03
000.27384 -1.098633e-03
000.27392 +2.929688e-03
000.27400 +7.324219e-03
000.27408 +2.563477e-03
000.27416 +1.464844e-03
000.27424 +1.464844e-03
000.27432 +1.831055e-03
000.27440 +3.662109e-04
000.27448 -9.887695e-03
000.27456 +1.098633e-03
000.27464 +8.056641e-03
000.27472 -3.662109e-04
000.27480 -1.098633e-03
000.27488 -1.831055e-03
000.27496 +3.662109e-04
000.27504 +8.422852e-03
000.27512 -1.831055e-03
000.27520 -7.324219e-04
000.27528 +7.324219e-04
000.27536 +2.563477e-03
000.27544 +4.760742e-03
000.27552 +2.929688e-03
000.27560 +1.831055e-03
000.27568 +2.929688e-03
000.27576 +1.098633e-03
000.27584 -7.324219e-04
000.27592 +2.929688e-03
000.27600 +3.295898e-03
000.27608 +1.464844e-03
000.27616 +6.225586e-03
000.27624 +1.464844e-03
000.27632 +2.929688e-03
000.27640 +3.295898e-03
000.27648 +7.324219e-04
000.27656 +7.324219e-04
000.27664 -6.225586e-03
000.27672 +7.324219e-03
000.27680 +4.760742e-03
000.27688 +4.028320e-03
000.27696 -1.464844e-03
000.27704 -5.126953e-03
000.27712 +1.464844e-03
000.27720 +4.028320e-03
000.27728 +2.197266e-03
000.27736 +0.000000e+00
000.27744 +1.831055e-03
000.27752 +1.831055e-03
000.27760 +3.295898e-03
000.27768 +1.831055e-03
000.27776 -2.197266e-03
000.27784 +7.324219e-04
000.27792 +1.098633e-03
000.27800 +1.208496e-02
000.27808 +1.831055e-03
000.27816 +1.831055e-03
000.27824 +3.295898e-03
000.27832 -9.155273e-03
000.27840 +7.324219e-04
000.27848 +3.295898e-03
000.27856 +2.563477e-03
000.27864 -4.028320e-03
000.27872 +1.464844e-03
000.27880 -1.464844e-03
000.27888 +4.760742e-03
000.27896 +2.929688e-03
000.27904 +2.197266e-03
000.27912 +5.859375e-03
000.27920 -7.324219e-04
000.27928 +1.831055e-03
000.27936 -3.662109e-04
000.27944 +2.197266e-03
000.27952 +4.394531e-03
000.27960 +4.760742e-03
000.27968 +7.324219e-04
000.27976 +1.831055e-03
000.27984 +0.000000e+00
000.27992 -1.831055e-03
000.28000 -3.662109e-04
000.28008 +2.197266e-03
000.28016 +0.000000e+00
000.28024 +4.028320e-03
000.28032 +2.929688e-03
000.28040 +2.197266e-03
000.28048 -1.098633e-03
000.28056 +0.000000e+00
000.28064 -8.422852e-03
000.28072 -7.324219e-03
000.28080 +7.324219e-04
000.28088 +4.760742e-03
000.28096 +1.098633e-03
000.28104 -1.208496e-02
000.28112 +2.197266e-03
000.28120 +4.760742e-03
000.28128 +1.831055e-03
000.28136 +5.493164e-03
000.28144 +1.098633e-03
000.28152 +2.490234e-02
000.28160 +4.394531e-03
000.28168 +3.662109e-03
000.28176 +8.422852e-03
000.28184 +4.760742e-03
000.28192 +3.295898e-03
000.28200 +2.929688e-03
000.28208 +1.831055e-03
000.28216 +3.662109e-04
000.28224 +1.354980e-02
000.28232 +1.098633e-03
000.28240 +2.929688e-03
000.28248 +1.831055e-03
000.28256 +7.324219e-04
000.28264 -3.662109e-04
000.28272 +1.098633e-03
000.28280 +1.831055e-03
000.28288 +2.563477e-03
000.28296 +1.098633e-03
000.28304 +0.000000e+00
000.28312 +6.958008e-03
000.28320 +1.098633e-03
000.28328 -5.493164e-03
000.28336 +3.662109e-04
000.28344 +1.098633e-03
000.28352 -3.662109e-04
000.28360 +2.929688e-03
000.28368 -1.464844e-03
000.28376 -8.056641e-03
000.28384 +1.831055e-03
000.28392 +3.662109e-04
000.28400 -1.464844e-03
000.28408 +6.958008e-03
000.28416 -1.098633e-03
000.28424 +3.662109e-04
000.28432 +1.464844e-03
000.28440 +1.831055e-03
000.28448 +2.929688e-03
000.28456 +6.225586e-03
000.28464 +1.464844e-03
000.28472 +5.859375e-03
000.28480 +1.098633e-03
000.28488 -1.098633e-03
000.28496 +2.416992e-02
000.28504 +2.416992e-02
000.28512 +1.281738e-02
000.28520 +1.904297e-02
000.28528 +1.831055e-03
000.28536 +1.098633e-03
000.28544 +2.197266e-03
000.28552 +2.197266e-03
000.28560 -1.098633e-03
000.28568 -7.690430e-03
000.28576 +0.000000e+00
000.28584 +1.098633e-03
000.28592 -2.563477e-03
000.28600 +0.000000e+00
000.28608 +0.000000e+00
000.28616 -3.662109e-04
000.28624 +0.000000e+00
000.28632 +7.324219e-04
000.28640 -3.662109e-04
000.28648 +3.662109e-03
000.28656 +2.197266e-03
000.28664 +3.662109e-03
000.28672 +3.295898e-03
000.28680 +1.464844e-03
000.28688 +1.464844e-03
000.28696 +1.098633e-03
000.28704 +2.563477e-03
000.28712 +7.690430e-03
000.28720 +0.000000e+00
000.28728 +1.464844e-03
000.28736 +1.098633e-03
000.28744 +1.464844e-03
000.28752 +2.197266e-03
000.28760 -9.887695e-03
000.28768 +1.464844e-03
000.28776 -7.690430e-03
000.28784 +2.563477e-03
000.28792 +2.197266e-03
000.28800 +3.662109e-03
000.28808 +1.464844e-03
000.28816 +1.098633e-03
000.28824 -2.233887e-02
000.28832 -3.662109e-03
000.28840 +3.662109e-04
000.28848 -8.422852e-03
000.28856 +1.831055e-03
000.28864 +0.000000e+00
000.28872 +0.000000e+00
000.28880 +3.662109e-04
000.28888 -1.831055e-03
000.28896 +3.662109e-04
000.28904 +1.098633e-03
000.28912 +0.000000e+00
000.28920 -1.464844e-03
000.28928 -3.662109e-04
000.28936 -3.662109e-04
000.28944 -1.098633e-03
000.28952 -7.324219e-04
000.28960 -3.662109e-04
000.28968 +2.197266e-03
000.28976 -5.493164e-03
000.28984 +7.324219e-04
000.28992 -3.662109e-04
000.29000 -3.295898e-03
000.29008 +2.563477e-03
000.29016 +3.662109e-03
000.29024 -1.098633e-03
000.29032 +1.098633e-03
000.29040 +3.662109e-04
000.29048 +4.028320e-03
000.29056 +2.929688e-03
000.29064 -4.760742e-03
000.29072 +1.831055e-03
000.29080 +9.887695e-03
000.29088 +3.295898e-03
000.29096 +2.563477e-03
000.29104 +1.831055e-03
000.29112 -2.050781e-02
000.29120 +1.098633e-03
000.29128 -6.225586e-03
000.29136 +1.464844e-03
000.29144 -1.831055e-03
000.29152 -2.929688e-03
000.29160 +1.464844e-03
000.29168 -2.929688e-03
000.29176 -2.416992e-02
000.29184 -2.197266e-03
000.29192 -2.563477e-03
000.29200 -3.662109e-04
000.29208 -4.760742e-03
000.29216 -1.098633e-03
000.29224 -2.929688e-03
000.29232 -1.098633e-03
000.29240 -3.662109e-04
000.29248 -2.197266e-03
000.29256 -3.662109e-04
000.29264 -7.324219e-04
000.29272 -4.028320e-03
000.29280 -3.662109e-04
000.29288 -7.324219e-04
000.29296 +7.324219e-04
000.29304 +2.563477e-03
000.29312 +1.831055e-03
000.29320 -3.662109e-04
000.29328 +1.098633e-03
000.29336 -2.563477e-03
000.29344 -7.324219e-04
000.29352 -1.098633e-03
000.29360 -2.563477e-03
000.29368 +2.563477e-03
000.29376 -7.324219e-04
000.29384 -4.394531e-03
000.29392 +7.324219e-04
000.29400 +3.295898e-03
000.29408 +4.760742e-03
000.29416 +4.760742e-03
000.29424 +0.000000e+00
000.29432 -1.464844e-03
000.29440 -1.831055e-03
000.29448 -1.464844e-03
000.29456 -1.831055e-03
000.29464 +1.831055e-03
000.29472 -1.464844e-03
000.29480 -1.098633e-02
000.29488 -2.197266e-03
000.29496 -3.662109e-04
000.29504 -2.929688e-03
000.29512 -2.929688e-03
000.29520 -1.098633e-03
000.29528 +1.318359e-02
000.29536 -1.025391e-02
000.29544 -9.521484e-03
000.29552 +3.662109e-04
000.29560 +7.324219e-04
000.29568 +2.197266e-03
000.29576 -3.295898e-03
000.29584 -1.464844e-03
000.29592 +1.464844e-03
000.29600 +3.662109e-04
000.29608 -3.662109e-03
000.29616 +3.662109e-03
000.29624 +2.929688e-03
000.29632 +2.197266e-03
000.29640 -1.831055e-03
000.29648 +1.464844e-03
000.29656 +1.464844e-03
000.29664 +2.197266e-03
000.29672 -3.662109e-04
000.29680 +0.000000e+00
000.29688 -4.028320e-03
000.29696 -3.662109e-04
000.29704 -7.324219e-04
000.29712 -7.324219e-04
000.29720 +7.324219e-04
000.29728 +7.324219e-04
000.29736 -2.929688e-03
000.29744 -7.324219e-04
000.29752 +6.225586e-03
000.29760 +7.324219e-04
000.29768 -4.394531e-03
000.29776 +0.000000e+00
000.29784 +6.958008e-03
000.29792 +3.662109e-04
000.29800 +2.416992e-02
000.29808 +3.662109e-04
000.29816 +1.062012e-02
000.29824 +2.197266e-03
000.29832 +1.098633e-03
000.29840 +7.324219e-03
000.29848 -2.380371e-02
000.29856 +1.831055e-03
000.29864 +8.422852e-03
000.29872 -9.887695e-03
000.29880 +1.831055e-03
000.29888 -4.394531e-03
000.29896 -1.318359e-02
000.29904 +3.662109e-04
000.29912 +1.098633e-03
000.29920 +2.563477e-03
000.29928 +1.831055e-03
000.29936 +2.197266e-03
000.29944 +1.831055e-03
000.29952 +2.929688e-03
000.29960 +2.929688e-03
000.29968 +2.197266e-03
000.29976 -2.343750e-02
000.29984 +0.000000e+00
000.29992 +1.831055e-03
000.30000 +2.563477e-03
000.30008 -2.563477e-03
000.30016 +1.098633e-03
000.30024 -2.197266e-03
000.30032 +0.000000e+00
000.30040 -1.098633e-03
000.30048 -7.324219e-04
000.30056 -5.493164e-03
000.30064 -1.098633e-03
000.30072 -3.295898e-03
000.30080 -1.464844e-03
000.30088 -1.098633e-03
000.30096 -7.324219e-04
000.30104 +3.295898e-03
000.30112 -1.464844e-03
000.30120 +2.929688e-03
000.30128 +4.028320e-03
000.30136 +3.662109e-04
000.30144 +2.197266e-03
000.30152 +1.062012e-02
000.30160 +2.929688e-03
000.30168 +8.056641e-03
000.30176 +8.789062e-03
000.30184 +7.324219e-03
000.30192 +2.929688e-03
000.30200 +2.197266e-03
000.30208 +1.464844e-03
000.30216 +1.098633e-03
000.30224 +4.028320e-03
000.30232 -2.563477e-03
000.30240 +2.197266e-02
000.30248 -7.324219e-03
000.30256 +7.690430e-03
000.30264 +9.887695e-03
000.30272 +0.000000e+00
000.30280 -1.464844e-03
000.30288 -1.831055e-03
000.30296 -9.887695e-03
000.30304 -7.324219e-04
000.30312 -1.464844e-03
000.30320 +2.197266e-03
000.30328 -5.859375e-03
000.30336 -1.684570e-02
000.30344 -1.464844e-03
000.30352 -7.324219e-04
000.30360 -2.563477e-03
000.30368 +5.126953e-03
000.30376 +1.831055e-03
000.30384 -3.662109e-03
000.30392 -3.662109e-04
000.30400 -3.662109e-03
000.30408 +1.501465e-02
000.30416 -1.831055e-03
000.30424 +3.295898e-03
000.30432 -7.324219e-04
000.30440 -3.662109e-03
000.30448 -3.662109e-04
000.30456 +5.493164e-03
000.30464 -7.324219e-04
000.30472 -7.324219e-04
000.30480 -3.295898e-03
000.30488 +2.563477e-03
000.30496 +0.000000e+00
000.30504 +1.062012e-02
000.30512 +1.171875e-02
000.30520 -3.662109e-04
000.30528 +9.155273e-03
000.30536 -7.324219e-04
000.30544 -1.464844e-03
000.30552 +1.354980e-02
000.30560 -7.324219e-04
000.30568 +1.464844e-03
000.30576 -3.662109e-04
000.30584 -6.591797e-03
000.30592 -2.563477e-03
000.30600 -1.831055e-03
000.30608 -7.324219e-04
000.30616 -2.563477e-03
000.30624 -2.563477e-03
000.30632 -3.295898e-03
000.30640 +4.028320e-03
000.30648 -3.662109e-04
000.30656 +7.324219e-04
000.30664 +1.464844e-03
000.30672 -7.324219e-04
000.30680 +1.098633e-03
000.30688 +1.831055e-03
000.30696 +1.098633e-03
000.30704 -3.662109e-04
000.30712 -2.929688e-03
000.30720 +7.324219e-04
000.30728 +1.464844e-03
000.30736 -7.324219e-04
000.30744 -1.831055e-03
000.30752 -2.563477e-03
000.30760 -5.126953e-03
000.30768 +0.000000e+00
000.30776 -4.394531e-03
000.30784 +3.662109e-03
000.30792 -8.422852e-03
000.30800 -3.662109e-04
000.30808 -2.197266e-03
000.30816 -1.831055e-03
000.30824 +3.295898e-03
000.30832 +3.662109e-04
000.30840 -8.056641e-03
000.30848 +0.000000e+00
000.30856 -4.760742e-03
000.30864 -3.662109e-04
000.30872 +5.859375e-03
000.30880 -7.324219e-04
000.30888 +8.789062e-03
000.30896 +1.098633e-03
000.30904 -7.324219e-04
000.30912 -3.662109e-04
000.30920 +7.324219e-04
000.30928 -3.662109e-03
000.30936 -1.831055e-03
000.30944 +2.197266e-03
000.30952 +0.000000e+00
000.30960 -7.324219e-04
000.30968 -3.662109e-04
000.30976 -1.464844e-03
000.30984 -1.062012e-02
000.30992 -2.197266e-03
000.31000 +1.538086e-02
000.31008 +1.098633e-03
000.31016 +7.324219e-04
000.31024 +3.662109e-04
000.31032 +1.098633e-03
000.31040 -7.324219e-04
000.31048 +1.098633e-03
000.31056 +4.394531e-03
000.31064 +1.464844e-03
000.31072 +2.929688e-03
000.31080 +2.197266e-03
000.31088 +3.295898e-03
000.31096 +2.563477e-03
000.31104 +3.662109e-04
000.31112 +2.563477e-03
000.31120 +3.662109e-04
000.31128 +4.028320e-03
000.31136 -7.324219e-04
000.31144 -3.662109e-03
000.31152 -8.422852e-03
000.31160 +3.662109e-04
000.31168 -3.295898e-03
000.31176 -3.662109e-04
000.31184 -3.662109e-04
000.31192 +1.464844e-03
000.31200 -2.197266e-03
000.31208 -1.831055e-03
000.31216 -1.098633e-03
000.31224 +2.929688e-03
000.31232 -7.324219e-04
000.31240 -2.197266e-03
000.31248 -9.521484e-03
000.31256 -3.662109e-04
000.31264 -1.464844e-03
000.31272 +0.000000e+00
000.31280 -1.171875e-02
000.31288 -1.464844e-03
000.31296 -6.958008e-03
000.31304 -1.098633e-03
000.31312 -1.098633e-03
000.31320 -1.098633e-03
000.31328 -8.056641e-03
000.31336 -2.563477e-03
000.31344 -3.662109e-04
000.31352 -1.098633e-03
000.31360 -2.563477e-03
000.31368 -1.464844e-03
000.31376 +4.760742e-03
000.31384 -1.464844e-03
000.31392 -4.394531e-03
000.31400 -4.028320e-03
000.31408 -7.324219e-04
000.31416 -7.324219e-04
000.31424 -1.464844e-03
000.31432 -7.324219e-04
000.31440 -3.295898e-03
000.31448 -2.563477e-03
000.31456 -4.394531e-03
000.31464 -3.662109e-03
000.31472 -1.098633e-03
000.31480 +5.126953e-03
000.31488 -6.225586e-03
000.31496 -2.929688e-03
000.31504 -6.225586e-03
000.31512 +1.171875e-02
000.31520 -3.295898e-03
000.31528 +2.197266e-03
000.31536 -3.295898e-03
000.31544 -4.760742e-03
000.31552 -1.098633e-03
000.31560 +2.929688e-03
000.31568 +7.324219e-03
000.31576 -2.563477e-03
000.31584 -7.324219e-04
000.31592 -1.354980e-02
000.31600 -1.098633e-02
000.31608 -3.662109e-04
000.31616 -3.662109e-04
000.31624 +0.000000e+00
000.31632 +8.422852e-03
000.31640 -2.197266e-03
000.31648 -2.929688e-03
000.31656 -7.324219e-04
000.31664 -1.098633e-03
000.31672 -1.135254e-02
000.31680 -2.929688e-03
000.31688 -1.098633e-03
000.31696 -1.831055e-03
000.31704 -2.563477e-03
000.31712 -3.662109e-03
000.31720 -2.563477e-03
000.31728 -7.324219e-04
000.31736 -1.464844e-03
000.31744 +1.098633e-03
000.31752 -3.662109e-04
000.31760 -1.831055e-03
000.31768 -1.464844e-02
000.31776 -1.098633e-03
000.31784 -1.098633e-03
000.31792 -1.098633e-03
000.31800 -8.056641e-03
000.31808 -1.464844e-03
000.31816 -9.155273e-03
000.31824 +0.000000e+00
000.31832 -3.662109e-03
000.31840 +7.324219e-04
000.31848 +4.028320e-03
000.31856 +3.662109e-04
000.31864 +5.493164e-03
000.31872 -1.098633e-03
000.31880 +0.000000e+00
000.31888 -1.831055e-03
000.31896 +7.324219e-04
000.31904 +7.324219e-04
000.31912 +1.831055e-03
000.31920 +7.324219e-04
000.31928 -2.343750e-02
000.31936 +1.098633e-03
000.31944 +0.000000e+00
000.31952 -3.662109e-04
000.31960 -4.760742e-03
000.31968 -6.591797e-03
000.31976 +3.662109e-04
000.31984 -7.324219e-04
000.31992 -7.324219e-04
000.32000 -2.197266e-03
000.32008 -7.324219e-04
000.32016 -1.098633e-03
000.32024 -2.197266e-03
000.32032 -1.098633e-03
000.32040 -3.662109e-04
000.32048 +0.000000e+00
000.32056 -1.098633e-03
000.32064 -4.394531e-03
000.32072 -3.295898e-03
000.32080 -4.028320e-03
000.32088 -2.197266e-03
000.32096 -1.831055e-03
000.32104 +2.929688e-03
000.32112 -1.831055e-03
000.32120 -8.422852e-03
000.32128 -1.098633e-03
000.32136 +3.662109e-04
000.32144 -2.197266e-03
000.32152 +0.000000e+00
000.32160 +8.789062e-03
000.32168 +7.324219e-04
000.32176 +2.929688e-03
000.32184 +2.563477e-03
000.32192 +0.000000e+00
000.32200 -5.126953e-03
000.32208 -4.028320e-03
000.32216 -9.155273e-03
000.32224 +0.000000e+00
000.32232 -2.197266e-03
000.32240 +0.000000e+00
000.32248 +2.929688e-03
000.32256 -2.929688e-03
000.32264 -4.028320e-03
000.32272 -2.197266e-03
000.32280 -2.343750e-02
000.32288 +7.324219e-03
000.32296 -2.563477e-03
000.32304 -2.563477e-03
000.32312 -3.662109e-03
000.32320 -1.098633e-03
000.32328 -3.295898e-03
000.32336 -2.563477e-03
000.32344 +1.098633e-03
000.32352 +0.000000e+00
000.32360 +3.295898e-03
000.32368 -2.929688e-03
000.32376 -1.281738e-02
000.32384 -1.098633e-03
000.32392 -2.197266e-03
000.32400 -2.563477e-03
000.32408 +3.662109e-04
000.32416 -1.464844e-03
000.32424 -4.760742e-03
000.32432 -2.929688e-03
000.32440 -4.028320e-03
000.32448 -2.929688e-03
000.32456 -5.493164e-03
000.32464 -1.098633e-03
000.32472 -3.662109e-04
000.32480 +1.098633e-03
000.32488 +2.563477e-03
000.32496 -1.464844e-03
000.32504 -3.662109e-03
000.32512 -1.098633e-03
000.32520 +0.000000e+00
000.32528 +0.000000e+00
000.32536 +1.464844e-03
000.32544 -5.126953e-03
000.32552 +2.563477e-03
000.32560 -1.098633e-03
000.32568 +1.464844e-03
000.32576 -2.197266e-03
000.32584 -2.197266e-03
000.32592 -1.025391e-02
000.32600 +6.225586e-03
000.32608 +7.324219e-03
000.32616 +9.887695e-03
000.32624 +1.171875e-02
000.32632 -1.098633e-02
000.32640 -2.197266e-03
000.32648 -1.464844e-03
000.32656 +3.662109e-04
000.32664 -7.324219e-04
000.32672 -7.324219e-04
000.32680 -3.662109e-04
000.32688 -3.662109e-04
000.32696 -2.929688e-03
000.32704 +3.662109e-04
000.32712 -1.098633e-03
000.32720 -2.929688e-03
000.32728 +0.000000e+00
000.32736 -4.028320e-03
000.32744 -3.295898e-03
000.32752 +1.098633e-03
000.32760 -2.197266e-03
000.32768 -3.662109e-04
000.32776 -2.929688e-03
000.32784 +7.324219e-04
000.32792 -1.464844e-03
000.32800 +3.662109e-04
000.32808 +2.563477e-03
000.32816 +4.760742e-03
000.32824 +1.098633e-03
000.32832 -1.464844e-03
000.32840 -6.958008e-03
000.32848 +4.394531e-03
000.32856 -9.155273e-03
000.32864 -3.295898e-03
000.32872 -2.563477e-03
000.32880 -2.929688e-03
000.32888 +5.493164e-03
000.32896 -3.662109e-03
000.32904 -2.929688e-03
000.32912 -2.197266e-03
000.32920 -2.563477e-03
000.32928 -4.028320e-03
000.32936 +2.929688e-03
000.32944 -1.464844e-03
000.32952 +8.789062e-03
000.32960 -2.197266e-03
000.32968 -2.490234e-02
000.32976 -3.295898e-03
000.32984 -1.464844e-03
000.32992 -5.126953e-03
000.33000 -1.464844e-03
000.33008 -1.391602e-02
000.33016 -1.098633e-03
000.33024 -1.098633e-03
000.33032 -7.324219e-04
000.33040 -3.295898e-03
000.33048 -4.760742e-03
000.33056 +2.197266e-03
000.33064 +1.098633e-03
000.33072 +1.464844e-03
000.33080 +1.098633e-03
000.33088 +2.929688e-03
000.33096 +1.831055e-03
000.33104 +7.324219e-04
000.33112 +2.563477e-03
000.33120 +1.464844e-03
000.33128 -5.493164e-03
000.33136 -3.662109e-03
000.33144 -3.295898e-03
000.33152 -2.563477e-03
000.33160 -2.563477e-03
000.33168 -5.126953e-03
000.33176 +1.464844e-03
000.33184 -3.662109e-03
000.33192 -2.929688e-03
000.33200 -2.563477e-03
000.33208 +9.887695e-03
000.33216 -2.929688e-03
000.33224 +7.324219e-04
000.33232 -2.929688e-03
000.33240 -9.521484e-03
000.33248 +3.662109e-04
000.33256 -1.831055e-03
000.33264 -1.098633e-03
000.33272 -1.464844e-03
000.33280 -1.098633e-03
000.33288 +1.940918e-02
000.33296 -1.098633e-03
000.33304 +1.831055e-03
000.33312 -1.464844e-02
000.33320 -1.831055e-03
000.33328 -2.563477e-03
000.33336 -1.464844e-03
000.33344 -2.929688e-03
000.33352 -2.197266e-03
000.33360 -3.662109e-03
000.33368 -2.929688e-03
000.33376 -1.464844e-03
000.33384 -3.295898e-03
000.33392 -7.324219e-04
000.33400 -2.929688e-03
000.33408 -2.929688e-03
000.33416 -4.028320e-03
000.33424 -1.831055e-03
000.33432 -3.662109e-03
000.33440 -2.197266e-03
000.33448 -4.394531e-03
000.33456 -4.760742e-03
000.33464 -6.225586e-03
000.33472 -5.126953e-03
000.33480 -7.324219e-04
000.33488 -5.493164e-03
000.33496 +1.098633e-03
000.33504 -5.126953e-03
000.33512 -1.098633e-03
000.33520 -2.197266e-03
000.33528 +1.098633e-03
000.33536 -7.324219e-04
000.33544 -4.028320e-03
000.33552 +1.464844e-03
000.33560 -2.929688e-03
000.33568 -2.929688e-03
000.33576 +2.929688e-03
000.33584 -1.831055e-03
000.33592 +2.050781e-02
000.33600 -1.098633e-03
000.33608 +4.394531e-03
000.33616 -2.197266e-03
000.33624 +1.831055e-03
000.33632 -2.563477e-03
000.33640 -7.690430e-03
000.33648 -1.464844e-03
000.33656 -1.098633e-03
000.33664 -1.464844e-03
000.33672 -1.831055e-03
000.33680 -3.662109e-03
000.33688 -3.295898e-03
000.33696 -1.757812e-02
000.33704 +1.098633e-03
000.33712 -1.464844e-03
000.33720 -1.464844e-03
000.33728 -1.464844e-03
000.33736 -2.929688e-03
000.33744 -1.831055e-03
000.33752 -1.831055e-03
000.33760 -1.098633e-03
000.33768 -1.464844e-03
000.33776 -9.521484e-03
000.33784 -1.171875e-02
000.33792 -4.394531e-03
000.33800 -3.662109e-04
000.33808 -1.831055e-03
000.33816 +7.690430e-03
000.33824 +0.000000e+00
000.33832 +3.662109e-04
000.33840 -3.662109e-04
000.33848 -7.324219e-04
000.33856 +0.000000e+00
000.33864 +3.662109e-03
000.33872 -7.324219e-04
000.33880 +8.789062e-03
000.33888 -1.098633e-03
000.33896 +7.690430e-03
000.33904 -1.464844e-03
000.33912 -8.422852e-03
000.33920 -1.464844e-03
000.33928 +3.662109e-04
000.33936 +2.929688e-03
000.33944 -3.295898e-03
000.33952 +0.000000e+00
000.33960 -1.831055e-03
000.33968 -1.098633e-03
000.33976 +1.208496e-02
000.33984 -4.028320e-03
000.33992 -1.501465e-02
000.34000 -9.521484e-03
000.34008 -2.197266e-03
000.34016 -2.197266e-03
000.34024 -1.464844e-03
000.34032 -7.324219e-04
000.34040 -1.098633e-03
000.34048 -2.563477e-03
000.34056 -2.197266e-03
000.34064 -3.295898e-03
000.34072 -8.056641e-03
000.34080 -5.493164e-03
000.34088 -3.662109e-03
000.34096 -4.394531e-03
000.34104 -3.295898e-03
000.34112 -3.662109e-04
000.34120 -1.831055e-03
000.34128 -3.295898e-03
000.34136 -3.662109e-03
000.34144 -1.464844e-03
000.34152 +7.324219e-04
000.34160 +3.662109e-04
000.34168 -5.493164e-03
000.34176 +0.000000e+00
000.34184 -1.464844e-03
000.34192 -7.324219e-04
000.34200 -2.197266e-03
000.34208 -7.324219e-04
000.34216 +2.197266e-03
000.34224 +8.422852e-03
000.34232 +9.155273e-03
000.34240 +2.929688e-03
000.34248 -3.662109e-03
000.34256 -4.028320e-03
000.34264 -9.521484e-03
000.34272 -3.662109e-03
000.34280 -1.647949e-02
000.34288 -3.295898e-03
000.34296 -3.662109e-03
000.34304 +3.662109e-03
000.34312 -1.062012e-02
000.34320 -4.760742e-03
000.34328 +8.422852e-03
000.34336 -4.028320e-03
000.34344 -7.324219e-03
000.34352 -5.126953e-03
000.34360 -4.394531e-03
000.34368 -3.662109e-03
000.34376 -9.155273e-03
000.34384 -2.124023e-02
000.34392 -5.126953e-03
000.34400 -5.126953e-03
000.34408 -5.126953e-03
000.34416 -4.028320e-03
000.34424 -3.662109e-03
000.34432 -4.394531e-03
000.34440 -3.295898e-03
000.34448 -3.295898e-03
000.34456 -2.929688e-03
000.34464 -1.098633e-03
000.34472 -2.563477e-03
000.34480 +0.000000e+00
000.34488 -4.028320e-03
000.34496 -5.126953e-03
000.34504 -7.324219e-03
000.34512 -5.859375e-03
000.34520 -2.929688e-03
000.34528 +3.295898e-03
000.34536 -2.929688e-03
000.34544 -2.929688e-03
000.34552 -3.662109e-03
000.34560 -4.394531e-03
000.34568 -2.929688e-03
000.34576 -4.760742e-03
000.34584 -9.521484e-03
000.34592 -4.028320e-03
000.34600 -1.464844e-02
000.34608 -5.126953e-03
000.34616 -1.574707e-02
000.34624 -4.394531e-03
000.34632 -2.709961e-02
000.34640 -4.028320e-03
000.34648 -2.929688e-03
000.34656 -2.563477e-03
000.34664 -1.721191e-02
000.34672 -3.662109e-03
000.34680 -2.197266e-03
000.34688 -3.295898e-03
000.34696 -2.563477e-03
000.34704 -1.831055e-03
000.34712 -1.098633e-03
000.34720 -3.662109e-03
000.34728 -4.028320e-03
000.34736 -4.028320e-03
000.34744 -2.563477e-03
000.34752 -2.563477e-03
000.34760 -3.662109e-03
000.34768 -4.028320e-03
000.34776 -2.197266e-03
000.34784 -2.929688e-03
000.34792 -1.464844e-03
000.34800 +7.324219e-04
000.34808 -1.318359e-02
000.34816 -1.098633e-03
000.34824 -3.295898e-03
000.34832 -1.464844e-03
000.34840 -3.662109e-04
000.34848 -2.929688e-03
000.34856 -2.709961e-02
000.34864 -3.662109e-03
000.34872 -7.324219e-03
000.34880 -2.929688e-03
000.34888 +1.098633e-03
000.34896 -3.295898e-03
000.34904 +2.563477e-03
000.34912 +3.295898e-03
000.34920 +1.831055e-03
000.34928 -3.662109e-03
000.34936 -2.563477e-03
000.34944 -2.929688e-03
000.34952 -4.028320e-03
000.34960 -7.324219e-04
000.34968 +4.760742e-03
000.34976 -4.028320e-03
000.34984 -1.464844e-03
000.34992 -3.662109e-03
000.35000 +6.958008e-03
000.35008 -2.929688e-03
000.35016 -3.662109e-03
000.35024 -2.563477e-03
000.35032 +2.929688e-03
000.35040 -6.958008e-03
000.35048 -1.098633e-03
000.35056 -1.464844e-03
000.35064 -4.028320e-03
000.35072 -2.197266e-03
000.35080 -9.521484e-03
000.35088 -7.324219e-04
000.35096 -1.831055e-03
000.35104 -2.197266e-03
000.35112 +5.493164e-03
000.35120 -4.028320e-03
000.35128 -2.563477e-03
000.35136 -4.394531e-03
000.35144 -4.394531e-03
000.35152 -7.690430e-03
000.35160 -5.126953e-03
000.35168 -7.324219e-03
000.35176 -8.422852e-03
000.35184 -5.126953e-03
000.35192 +1.611328e-02
000.35200 -5.859375e-03
000.35208 -5.126953e-03
000.35216 -6.591797e-03
000.35224 -7.324219e-03
000.35232 -3.662109e-03
000.35240 +3.295898e-03
000.35248 -4.394531e-03
000.35256 +3.295898e-03
000.35264 -4.760742e-03
000.35272 -1.464844e-03
000.35280 -3.295898e-03
000.35288 -1.464844e-02
000.35296 -4.394531e-03
000.35304 -1.464844e-02
000.35312 -4.394531e-03
000.35320 +3.662109e-03
000.35328 -4.394531e-03
000.35336 -5.859375e-03
000.35344 -6.225586e-03
000.35352 -1.831055e-03
000.35360 -5.126953e-03
000.35368 -5.493164e-03
000.35376 -6.591797e-03
000.35384 -4.760742e-03
000.35392 -1.135254e-02
000.35400 -4.760742e-03
000.35408 -2.050781e-02
000.35416 -7.690430e-03
000.35424 -5.126953e-03
000.35432 -5.859375e-03
000.35440 -7.324219e-03
000.35448 -7.690430e-03
000.35456 -8.056641e-03
000.35464 -6.958008e-03
000.35472 -7.690430e-03
000.35480 -5.493164e-03
000.35488 -5.493164e-03
000.35496 -8.422852e-03
000.35504 -5.126953e-03
000.35512 -5.859375e-03
000.35520 -4.028320e-03
000.35528 -6.225586e-03
000.35536 -5.126953e-03
000.35544 -1.098633e-03
000.35552 -5.493164e-03
000.35560 -9.887695e-03
000.35568 -4.394531e-03
000.35576 +1.464844e-03
000.35584 -5.859375e-03
000.35592 -2.563477e-03
000.35600 +4.760742e-03
000.35608 -1.464844e-03
000.35616 -4.394531e-03
000.35624 -2.563477e-03
000.35632 -4.394531e-03
000.35640 -5.859375e-03
000.35648 -3.662109e-03
000.35656 -9.887695e-03
000.35664 -4.760742e-03
000.35672 +9.521484e-03
000.35680 -3.662109e-03
000.35688 -1.098633e-03
000.35696 +1.721191e-02
000.35704 -4.028320e-03
000.35712 -6.225586e-03
000.35720 +7.324219e-04
000.35728 +1.574707e-02
000.35736 -3.295898e-03
000.35744 -2.563477e-03
000.35752 -3.662109e-03
000.35760 -2.197266e-03
000.35768 -2.563477e-03
000.35776 -5.493164e-03
000.35784 -2.929688e-03
000.35792 -4.028320e-03
000.35800 +5.493164e-03
000.35808 -2.929688e-03
000.35816 -2.563477e-03
000.35824 -3.295898e-03
000.35832 -2.929688e-03
000.35840 -1.831055e-03
000.35848 -1.831055e-03
000.35856 -3.295898e-03
000.35864 -4.760742e-03
000.35872 +5.859375e-03
000.35880 -9.521484e-03
000.35888 -7.324219e-03
000.35896 -5.493164e-03
000.35904 -2.197266e-03
000.35912 -3.295898e-03
000.35920 -2.197266e-03
000.35928 +3.662109e-03
000.35936 -2.563477e-03
000.35944 +5.126953e-03
000.35952 -4.394531e-03
000.35960 -4.760742e-03
000.35968 -3.295898e-03
000.35976 -2.563477e-03
000.35984 -4.394531e-03
000.35992 -1.098633e-02
000.36000 -4.028320e-03
000.36008 -2.197266e-03
000.36016 -3.662109e-04
000.36024 -1.098633e-03
000.36032 -3.662109e-03
000.36040 +3.662109e-04
000.36048 -4.028320e-03
000.36056 -3.662109e-03
000.36064 -4.394531e-03
000.36072 -4.028320e-03
000.36080 -3.662109e-03
000.36088 -5.126953e-03
000.36096 -2.197266e-03
000.36104 -3.662109e-03
000.36112 -3.295898e-03
000.36120 -4.394531e-03
000.36128 -2.563477e-03
000.36136 -1.464844e-03
000.36144 +0.000000e+00
000.36152 -3.662109e-04
000.36160 +0.000000e+00
000.36168 +2.563477e-03
000.36176 +1.647949e-02
000.36184 -1.831055e-03
000.36192 +0.000000e+00
000.36200 -1.098633e-03
000.36208 -7.324219e-04
000.36216 -6.958008e-03
000.36224 -2.563477e-03
000.36232 -1.464844e-03
000.36240 +3.662109e-04
000.36248 -1.794434e-02
000.36256 -3.295898e-03
000.36264 -2.563477e-03
000.36272 -4.760742e-03
000.36280 +3.662109e-04
000.36288 +7.324219e-04
000.36296 -6.591797e-03
000.36304 -4.760742e-03
000.36312 -9.521484e-03
000.36320 -1.171875e-02
000.36328 -1.025391e-02
000.36336 -6.225586e-03
000.36344 -2.197266e-03
000.36352 -5.859375e-03
000.36360 -3.662109e-03
000.36368 -4.760742e-03
000.36376 -3.662109e-04
000.36384 -5.493164e-03
000.36392 -4.394531e-03
000.36400 -1.391602e-02
000.36408 -4.760742e-03
000.36416 +7.324219e-04
000.36424 -5.493164e-03
000.36432 +7.324219e-04
000.36440 -3.662109e-03
000.36448 +1.098633e-02
000.36456 -3.662109e-03
000.36464 -4.028320e-03
000.36472 -8.422852e-03
000.36480 +2.197266e-03
000.36488 +1.318359e-02
000.36496 -8.056641e-03
000.36504 -2.929688e-03
000.36512 -2.563477e-03
000.36520 -1.464844e-03
000.36528 -4.028320e-03
000.36536 +0.000000e+00
000.36544 -2.563477e-03
000.36552 -4.760742e-03
000.36560 -5.859375e-03
000.36568 -3.295898e-03
000.36576 -8.422852e-03
000.36584 -6.591797e-03
000.36592 -4.760742e-03
000.36600 -4.760742e-03
000.36608 -8.422852e-03
000.36616 -7.690430e-03
000.36624 -5.493164e-03
000.36632 -3.662109e-03
000.36640 -5.126953e-03
000.36648 -2.197266e-03
000.36656 -4.394531e-03
000.36664 -1.171875e-02
000.36672 -4.760742e-03
000.36680 -6.225586e-03
000.36688 -2.197266e-03
000.36696 +4.028320e-03
000.36704 -4.394531e-03
000.36712 -3.662109e-03
000.36720 -4.760742e-03
000.36728 +3.662109e-04
000.36736 -5.126953e-03
000.36744 -4.028320e-03
000.36752 -4.028320e-03
000.36760 -9.155273e-03
000.36768 -5.859375e-03
000.36776 -3.662109e-03
000.36784 -5.126953e-03
000.36792 -4.028320e-03
000.36800 -3.295898e-03
000.36808 -2.929688e-03
000.36816 -4.760742e-03
000.36824 -4.760742e-03
000.36832 -6.225586e-03
000.36840 -4.028320e-03
000.36848 -5.126953e-03
000.36856 -5.126953e-03
000.36864 -5.859375e-03
000.36872 -5.126953e-03
000.36880 -7.690430e-03
000.36888 -5.493164e-03
000.36896 -5.859375e-03
000.36904 -8.056641e-03
000.36912 -6.958008e-03
000.36920 +6.225586e-03
000.36928 -2.197266e-03
000.36936 -3.662109e-03
000.36944 -5.859375e-03
000.36952 -1.464844e-03
000.36960 -4.760742e-03
000.36968 -6.591797e-03
000.36976 -1.831055e-03
000.36984 -4.028320e-03
000.36992 -4.394531e-03
000.37000 -5.859375e-03
000.37008 -1.318359e-02
000.37016 -1.428223e-02
000.37024 -3.662109e-03
000.37032 +0.000000e+00
000.37040 -3.662109e-03
000.37048 +6.591797e-03
000.37056 -1.831055e-03
000.37064 -3.662109e-04
000.37072 -2.929688e-03
000.37080 +1.867676e-02
000.37088 -3.295898e-03
000.37096 -1.611328e-02
000.37104 -1.098633e-02
000.37112 -2.856445e-02
000.37120 -4.394531e-03
000.37128 -2.563477e-03
000.37136 -5.126953e-03
000.37144 -5.493164e-03
000.37152 -7.324219e-03
000.37160 -9.155273e-03
000.37168 +4.394531e-03
000.37176 +1.245117e-02
000.37184 -7.690430e-03
000.37192 -6.958008e-03
000.37200 -8.056641e-03
000.37208 -6.591797e-03
000.37216 -7.690430e-03
000.37224 -6.958008e-03
000.37232 -2.929688e-03
000.37240 -8.056641e-03
000.37248 -5.493164e-03
000.37256 -6.591797e-03
000.37264 -7.324219e-03
000.37272 -2.563477e-03
000.37280 -4.028320e-03
000.37288 -5.126953e-03
000.37296 -7.690430e-03
000.37304 -1.245117e-02
000.37312 -6.591797e-03
000.37320 -5.126953e-03
000.37328 -5.493164e-03
000.37336 -1.281738e-02
000.37344 -5.859375e-03
000.37352 -1.501465e-02
000.37360 -6.591797e-03
000.37368 -1.281738e-02
000.37376 -2.563477e-03
000.37384 -5.859375e-03
000.37392 -1.062012e-02
000.37400 -4.394531e-03
000.37408 -4.028320e-03
000.37416 -2.929688e-03
000.37424 -4.394531e-03
000.37432 -2.087402e-02
000.37440 -4.394531e-03
000.37448 -3.662109e-03
000.37456 -5.859375e-03
000.37464 -4.394531e-03
000.37472 -1.354980e-02
000.37480 -7.690430e-03
000.37488 -6.958008e-03
000.37496 -7.324219e-03
000.37504 -8.056641e-03
000.37512 -6.958008e-03
000.37520 -3.295898e-03
000.37528 -4.760742e-03
000.37536 -7.324219e-04
000.37544 -6.225586e-03
000.37552 -2.563477e-03
000.37560 -3.662109e-03
000.37568 -6.958008e-03
000.37576 -5.126953e-03
000.37584 -2.929688e-03
000.37592 -4.394531e-03
000.37600 -2.563477e-03
000.37608 -5.126953e-03
000.37616 -1.831055e-03
000.37624 -7.690430e-03
000.37632 -3.295898e-03
000.37640 -2.197266e-03
000.37648 -1.098633e-03
000.37656 +4.028320e-03
000.37664 +3.662109e-04
000.37672 -1.318359e-02
000.37680 -5.126953e-03
000.37688 -7.324219e-03
000.37696 -4.028320e-03
000.37704 -1.318359e-02
000.37712 -6.225586e-03
000.37720 +1.098633e-03
000.37728 -4.394531e-03
000.37736 -8.056641e-03
000.37744 -5.126953e-03
000.37752 +9.521484e-03
000.37760 -2.197266e-03
000.37768 -2.563477e-03
000.37776 -4.394531e-03
000.37784 -4.760742e-03
000.37792 -5.859375e-03
000.37800 -1.098633e-03
000.37808 -4.394531e-03
000.37816 -4.394531e-03
000.37824 -2.197266e-02
000.37832 -2.929688e-03
000.37840 -5.493164e-03
000.37848 -4.394531e-03
000.37856 -2.929688e-03
000.37864 +2.014160e-02
000.37872 -5.126953e-03
000.37880 -4.028320e-03
000.37888 -2.929688e-03
000.37896 -3.662109e-03
000.37904 -3.295898e-03
000.37912 -1.464844e-03
000.37920 -5.859375e-03
000.37928 -4.760742e-03
000.37936 -5.859375e-03
000.37944 +2.929688e-03
000.37952 -6.958008e-03
000.37960 -6.591797e-03
000.37968 -3.295898e-03
000.37976 -7.324219e-04
000.37984 -5.126953e-03
000.37992 -7.324219e-03
000.38000 -4.394531e-03
000.38008 -4.028320e-03
000.38016 -6.591797e-03
000.38024 -5.126953e-03
000.38032 -4.760742e-03
000.38040 -1.391602e-02
000.38048 -4.028320e-03
000.38056 -1.831055e-03
000.38064 -5.126953e-03
000.38072 -2.087402e-02
000.38080 -7.324219e-03
000.38088 -5.859375e-03
000.38096 -6.591797e-03
000.38104 +5.493164e-03
000.38112 -5.493164e-03
000.38120 +3.295898e-03
000.38128 -1.831055e-03
000.38136 +2.197266e-03
000.38144 +6.591797e-03
000.38152 -3.662109e-03
000.38160 -2.563477e-03
000.38168 -3.295898e-03
000.38176 -1.098633e-03
000.38184 -2.563477e-03
000.38192 -2.929688e-03
000.38200 -4.394531e-03
000.38208 -1.464844e-03
000.38216 -2.929688e-03
000.38224 -4.394531e-03
000.38232 -2.929688e-03
000.38240 -2.197266e-03
000.38248 -4.760742e-03
000.38256 -5.859375e-03
000.38264 -4.394531e-03
000.38272 -5.859375e-03
000.38280 -5.493164e-03
000.38288 -1.647949e-02
000.38296 -6.958008e-03
000.38304 -5.493164e-03
000.38312 -5.493164e-03
000.38320 -5.859375e-03
000.38328 -1.831055e-03
000.38336 -6.958008e-03
000.38344 -1.464844e-03
000.38352 -8.422852e-03
000.38360 -1.098633e-02
000.38368 -6.225586e-03
000.38376 -7.324219e-04
000.38384 -6.225586e-03
000.38392 +0.000000e+00
000.38400 -8.422852e-03
000.38408 -6.591797e-03
000.38416 -7.324219e-03
000.38424 -1.171875e-02
000.38432 -8.056641e-03
000.38440 +1.098633e-03
000.38448 -5.493164e-03
000.38456 -1.098633e-02
000.38464 -3.662109e-03
000.38472 +7.324219e-03
000.38480 -5.126953e-03
000.38488 -4.760742e-03
000.38496 -4.028320e-03
000.38504 -2.197266e-03
000.38512 -2.563477e-03
000.38520 -4.394531e-03
000.38528 -4.028320e-03
000.38536 -4.760742e-03
000.38544 -4.394531e-03
000.38552 +1.428223e-02
000.38560 -4.394531e-03
000.38568 -5.859375e-03
000.38576 -6.958008e-03
000.38584 -4.394531e-03
000.38592 -6.591797e-03
000.38600 -6.591797e-03
000.38608 -8.422852e-03
000.38616 -8.789062e-03
000.38624 +1.464844e-03
000.38632 -4.028320e-03
000.38640 -6.591797e-03
000.38648 -1.464844e-03
000.38656 -3.295898e-03
000.38664 -5.859375e-03
000.38672 -4.028320e-03
000.38680 +4.760742e-03
000.38688 -3.295898e-03
000.38696 -8.422852e-03
000.38704 -2.563477e-03
000.38712 -9.521484e-03
000.38720 -6.591797e-03
000.38728 -6.591797e-03
000.38736 -2.563477e-03
000.38744 -1.062012e-02
000.38752 -4.028320e-03
000.38760 -4.028320e-03
000.38768 -3.662109e-03
000.38776 -5.126953e-03
000.38784 -4.028320e-03
000.38792 -5.126953e-03
000.38800 -7.324219e-04
000.38808 -7.324219e-04
000.38816 -4.394531e-03
000.38824 -2.600098e-02
000.38832 -1.281738e-02
000.38840 -4.394531e-03
000.38848 +4.760742e-03
000.38856 -5.493164e-03
000.38864 -6.591797e-03
000.38872 -6.225586e-03
000.38880 -7.324219e-03
000.38888 -7.690430e-03
000.38896 -9.521484e-03
000.38904 -4.760742e-03
000.38912 -4.394531e-03
000.38920 -6.225586e-03
000.38928 -4.028320e-03
000.38936 -5.859375e-03
000.38944 -9.155273e-03
000.38952 -6.225586e-03
000.38960 -7.324219e-04
000.38968 -1.464844e-03
000.38976 -5.859375e-03
000.38984 -8.422852e-03
000.38992 -5.859375e-03
000.39000 -1.171875e-02
000.39008 -4.394531e-03
000.39016 +2.563477e-03
000.39024 -5.126953e-03
000.39032 +3.662109e-04
000.39040 -4.760742e-03
000.39048 -2.929688e-03
000.39056 -4.028320e-03
000.39064 -2.929688e-03
000.39072 -1.831055e-03
000.39080 -2.490234e-02
000.39088 -2.197266e-03
000.39096 +8.056641e-03
000.39104 -7.324219e-04
000.39112 -4.028320e-03
000.39120 -4.028320e-03
000.39128 +7.324219e-03
000.39136 -5.126953e-03
000.39144 -1.574707e-02
000.39152 -7.690430e-03
000.39160 -1.684570e-02
000.39168 -8.056641e-03
000.39176 -9.521484e-03
000.39184 -5.493164e-03
000.39192 -7.690430e-03
000.39200 -1.794434e-02
000.39208 -5.126953e-03
000.39216 -7.690430e-03
000.39224 -8.056641e-03
000.39232 -8.422852e-03
000.39240 +6.591797e-03
000.39248 -7.324219e-03
000.39256 -5.859375e-03
000.39264 -5.859375e-03
000.39272 -6.958008e-03
000.39280 -6.958008e-03
000.39288 -5.126953e-03
000.39296 -6.225586e-03
000.39304 -5.126953e-03
000.39312 -6.225586e-03
000.39320 -6.958008e-03
000.39328 -5.859375e-03
000.39336 -5.126953e-03
000.39344 -5.859375e-03
000.39352 -5.859375e-03
000.39360 -6.225586e-03
000.39368 +1.464844e-03
000.39376 -6.225586e-03
000.39384 -1.098633e-02
000.39392 -6.225586e-03
000.39400 +2.197266e-03
000.39408 -9.155273e-03
000.39416 -1.245117e-02
000.39424 -6.591797e-03
000.39432 -4.760742e-03
000.39440 -7.324219e-03
000.39448 +1.354980e-02
000.39456 -8.056641e-03
000.39464 -8.056641e-03
000.39472 -8.789062e-03
000.39480 -1.574707e-02
000.39488 -7.690430e-03
000.39496 -9.155273e-03
000.39504 -3.662109e-03
000.39512 -4.760742e-03
000.39520 -1.062012e-02
000.39528 -8.056641e-03
000.39536 -1.135254e-02
000.39544 -6.225586e-03
000.39552 -6.958008e-03
000.39560 -7.324219e-03
000.39568 -5.493164e-03
000.39576 -6.591797e-03
000.39584 -5.493164e-03
000.39592 -4.760742e-03
000.39600 -4.760742e-03
000.39608 -4.760742e-03
000.39616 -5.126953e-03
000.39624 -5.493164e-03
000.39632 -3.662109e-03
000.39640 -5.126953e-03
000.39648 -5.126953e-03
000.39656 -1.208496e-02
000.39664 -6.958008e-03
000.39672 -4.760742e-03
000.39680 -4.760742e-03
000.39688 -6.225586e-03
000.39696 -6.225586e-03
000.39704 -1.208496e-02
000.39712 +3.662109e-04
000.39720 -4.760742e-03
000.39728 -1.098633e-03
000.39736 +1.428223e-02
000.39744 -4.028320e-03
000.39752 -3.662109e-03
000.39760 -4.760742e-03
000.39768 +0.000000e+00
000.39776 -4.028320e-03
000.39784 -1.611328e-02
000.39792 -1.428223e-02
000.39800 -7.690430e-03
000.39808 -5.126953e-03
000.39816 -5.493164e-03
000.39824 -5.126953e-03
000.39832 +0.000000e+00
000.39840 -3.662109e-03
000.39848 -4.394531e-03
000.39856 +8.422852e-03
000.39864 -1.098633e-02
000.39872 -4.760742e-03
000.39880 -4.760742e-03
000.39888 +3.295898e-03
000.39896 -4.394531e-03
000.39904 -4.028320e-03
000.39912 -4.394531e-03
000.39920 -2.929688e-03
000.39928 -1.464844e-03
000.39936 -5.126953e-03
000.39944 -4.028320e-03
000.39952 -5.493164e-03
000.39960 -4.760742e-03
000.39968 -6.591797e-03
000.39976 -6.591797e-03
000.39984 -9.155273e-03
000.39992 -6.591797e-03
